'Id: "" Comment: "" Operator: "Lab Manager" Anode: "Cu" Scantype: "Locked Coupled" TimePerStep: "157.8622" 
3 1.75457655690447
3.01600000075996 2.06491896987026
3.03200000151992 1.59627942188279
3.04800000227988 1.10847904423018
3.06400000303984 1.1279879334635
3.0800000037998 1.0165290602979
3.09600000455976 1.07538761200118
3.11200000531971 0.427741328993847
3.12800000607967 0.160300389214065
3.14400000683963 1.00073578014241
3.16000000759959 0.971309663945057
3.17600000835955 0.204552207000784
3.19200000911951 0.666971066640134
3.20800000987947 0.341944480380789
3.22400001063943 0.661712609632893
3.24000001139939 1.12246136116881
3.25600001215935 0
3.27200001291931 0.425384106209179
3.28800001367927 0.535866015066844
3.30400001443923 0.607962265940561
3.32000001519918 0.542202975824353
3.33600001595914 0.500109543718924
3.3520000167191 0.703812872821143
3.36800001747906 0.511207130260157
3.38400001823902 0.532914996793739
3.40000001899898 0.215566793475801
3.41600001975894 0.14048482893795
3.4320000205189 0.531689456708467
3.44800002127886 0.749941490328141
3.46400002203882 0.9620930968238
3.48000002279878 0.808589609701269
3.49600002355874 0.458854462139449
3.5120000243187 0.0655386417886312
3.52800002507865 0.908315741075878
3.54400002583861 0.665227170492845
3.56000002659857 0.610972776355279
3.57600002735853 0.407063799930629
3.59200002811849 0.718667443368862
3.60800002887845 0.515044480224947
3.62400002963841 0.606255831022391
3.64000003039837 0.597606107547133
3.65600003115833 0.368407774309262
3.67200003191829 0.429164766060381
3.68800003267825 0.229332014082679
3.70400003343821 0.300584697063339
3.72000003419816 0.624675031420267
3.73600003495812 0.375034794673216
3.75200003571808 0.672451686968493
3.76800003647804 0.891676624229575
3.784000037238 0.642543150956026
3.80000003799796 0.508862138557223
3.81600003875792 0.714839732751031
3.83200003951788 0.432897229925427
3.84800004027784 0.47625134274022
3.8640000410378 0.742228441144643
3.88000004179776 0.485109432634545
3.89600004255772 0.5642836917268
3.91200004331768 0.679751971891118
3.92800004407763 0.391742449998603
3.94400004483759 0.738302805086459
3.96000004559755 1.39965675305404
3.97600004635751 0.786897098201752
3.99200004711747 0.640317924647231
4.00800004787743 0.420517695053611
4.02400004863739 0.298445632454342
4.04000004939735 0.708964033452631
4.05600005015731 0.641257432339568
4.07200005091727 0.669755565048806
4.08800005167723 0.198372009473118
4.10400005243719 0.0174132639273878
4.12000005319715 0.542698145654132
4.1360000539571 1.19017539063813
4.15200005471706 0.330888955969801
4.16800005547702 0.681714546850476
4.18400005623698 0.590568691031422
4.20000005699694 1.14709590823851
4.2160000577569 0.672970996444292
4.23200005851686 0.304943474204737
4.24800005927682 0.45155249087923
4.26400006003678 0.0741624004331953
4.28000006079674 0.766563443886486
4.2960000615567 0.736041396994047
4.31200006231666 0.662517322858747
4.32800006307662 0.510076315658864
4.34400006383657 0.533518191226268
4.36000006459653 0.363420284222265
4.37600006535649 0.460580481459434
4.39200006611645 0.398555220532252
4.40800006687641 0.542420352419313
4.42400006763637 0.29743049528857
4.44000006839633 0.142665050560105
4.45600006915629 0.509307838002776
4.47200006991625 0.757362885626847
4.48800007067621 0.67470151033497
4.50400007143617 0.475808190561736
4.52000007219613 0.497666765750786
4.53600007295609 0.557770780588246
4.55200007371604 0.801766059075366
4.568000074476 0.530445307674846
4.58400007523596 0.603452779253647
4.60000007599592 0.765092319005639
4.61600007675588 0.121384761901407
4.63200007751584 0.529745346711344
4.6480000782758 0.907218838305699
4.66400007903576 0.00440628650007469
4.68000007979572 0.460553894253586
4.69600008055568 0.744518326072377
4.71200008131564 0.414513286188058
4.7280000820756 0.711916915657561
4.74400008283556 0.67096658366281
4.76000008359551 0.603634443031943
4.77600008435547 0.348788901046255
4.79200008511543 0.147968325165724
4.80800008587539 0.813694188161161
4.82400008663535 0.580105984979102
4.84000008739531 0.24775581701136
4.85600008815527 0.734649353149663
4.87200008891523 1.00669293601104
4.88800008967519 0.455806587076758
4.90400009043515 0.44100241356437
4.92000009119511 0.465576632246311
4.93600009195507 0.281064652508832
4.95200009271502 0.104428633937903
4.96800009347498 0.387026616571355
4.98400009423494 0.879519141135198
5.0000000949949 0.425783328325526
5.01600009575486 0.981178487818454
5.03200009651482 1.16348588043984
5.04800009727478 0.416345617543502
5.06400009803474 0.613781715423801
5.0800000987947 0.836460613847791
5.09600009955466 0.700992085205062
5.11200010031462 0.526847253454708
5.12800010107458 0.559173352014295
5.14400010183454 0.603379655449078
5.16000010259449 0.666615701819676
5.17600010335445 1.25499657256675
5.19200010411441 1.10859503560749
5.20800010487437 0.840098392906366
5.22400010563433 0.418691232820176
5.24000010639429 0.964846958964529
5.25600010715425 0.714620732479897
5.27200010791421 0.814304579222625
5.28800010867417 0.812321295727028
5.30400010943413 0.947864481201492
5.32000011019409 0.509418216825676
5.33600011095405 1.00462722324209
5.35200011171401 0.927141349192674
5.36800011247396 0.910208299196178
5.38400011323392 0.981388439707182
5.40000011399388 0.667968017148475
5.41600011475384 0.54463932952768
5.4320001155138 1.27016734121269
5.44800011627376 1.37293562167102
5.46400011703372 1.18794929863974
5.48000011779368 1.39282857581567
5.49600011855364 0.796526543446181
5.5120001193136 0.782959433836389
5.52800012007356 1.11909725308585
5.54400012083352 1.62408093485437
5.56000012159348 1.65581101028225
5.57600012235343 1.12801012995612
5.59200012311339 1.11102874810286
5.60800012387335 1.31172246558593
5.62400012463331 1.15412843052579
5.64000012539327 1.74081223486318
5.65600012615323 1.72559895661695
5.67200012691319 1.92825861186188
5.68800012767315 1.98254221947808
5.70400012843311 1.69519105070995
5.72000012919307 1.71746809338292
5.73600012995303 1.76831257395088
5.75200013071299 1.99934462204136
5.76800013147295 1.87716388550833
5.7840001322329 1.58389578266889
5.80000013299286 1.71825978445023
5.81600013375282 2.04650938205796
5.83200013451278 1.29204807306118
5.84800013527274 1.39934434824126
5.8640001360327 2.15485853474104
5.88000013679266 2.27982673743135
5.89600013755262 2.24273950356891
5.91200013831258 2.15418928182528
5.92800013907254 1.92978352212785
5.9440001398325 2.05491352776616
5.96000014059246 1.89732880932786
5.97600014135242 1.49346447808733
5.99200014211237 2.08272605516704
6.00800014287233 2.17910580586534
6.02400014363229 2.0213041713945
6.04000014439225 2.60362248978312
6.05600014515221 2.14031123652885
6.07200014591217 2.01304650471995
6.08800014667213 2.93570734402211
6.10400014743209 3.01173900821385
6.12000014819205 2.59425399096263
6.13600014895201 2.25101848559708
6.15200014971197 2.54360076026605
6.16800015047192 2.78125715083724
6.18400015123188 2.5090091158518
6.20000015199184 2.84610596392014
6.2160001527518 2.92022474669212
6.23200015351176 2.65372642204919
6.24800015427172 2.93923414621357
6.26400015503168 2.56652137568328
6.28000015579164 2.09326040486666
6.2960001565516 2.39586729297108
6.31200015731156 2.92772595643768
6.32800015807152 2.18700940086166
6.34400015883148 1.95432802180354
6.36000015959144 2.44265586595517
6.37600016035139 2.86455142265754
6.39200016111135 2.4966325935913
6.40800016187131 2.57622941021175
6.42400016263127 3.05441204683776
6.44000016339123 3.03350789675957
6.45600016415119 2.85237589113144
6.47200016491115 2.80856756477577
6.48800016567111 2.73262404392626
6.50400016643107 2.51902300649292
6.52000016719103 2.29394226555999
6.53600016795099 2.24083731113107
6.55200016871095 2.25367302424223
6.56800016947091 2.22228984735333
6.58400017023086 2.07992102376107
6.60000017099082 2.12398182164059
6.61600017175078 2.65688602318275
6.63200017251074 2.56537800023714
6.6480001732707 2.89242466538833
6.66400017403066 2.66680184269874
6.68000017479062 2.54576733003512
6.69600017555058 2.45146991711269
6.71200017631054 2.42841586053903
6.7280001770705 2.26892329383537
6.74400017783046 2.89738576419659
6.76000017859042 2.57478647820122
6.77600017935038 2.06651574816855
6.79200018011033 2.12576883851247
6.80800018087029 2.64441382880218
6.82400018163025 2.60565424430348
6.84000018239021 2.44740104755889
6.85600018315017 2.08697126642578
6.87200018391013 2.47313339290279
6.88800018467009 2.86858910330784
6.90400018543005 2.9440292154572
6.92000018619001 2.36374091467265
6.93600018694997 2.4195886541176
6.95200018770993 1.94183950920496
6.96800018846989 1.68936311468779
6.98400018922985 1.65666345810411
7.0000001899898 1.86733079032479
7.01600019074976 1.6536052173583
7.03200019150972 2.04189174036581
7.04800019226968 2.6867402978623
7.06400019302964 2.5320674219413
7.0800001937896 2.27060105879269
7.09600019454956 2.1559350604824
7.11200019530952 2.05242259312318
7.12800019606948 1.81336150060145
7.14400019682944 2.00453413427083
7.1600001975894 1.99957040200184
7.17600019834936 1.88210531916625
7.19200019910931 1.65202211818099
7.20800019986927 1.53973265473181
7.22400020062923 1.4228407233928
7.24000020138919 2.34058651272087
7.25600020214915 1.95623150917186
7.27200020290911 1.94104870331832
7.28800020366907 2.2429811946546
7.30400020442903 2.09146079800964
7.32000020518899 2.00814061594159
7.33600020594895 2.02675049590025
7.35200020670891 1.68196954028182
7.36800020746887 2.10129888693536
7.38400020822883 1.65702936341971
7.40000020898878 1.88037019098033
7.41600020974874 2.17715462804983
7.4320002105087 2.3766074579545
7.44800021126866 1.71046554735751
7.46400021202862 1.53588766171995
7.48000021278858 1.35055795987908
7.49600021354854 1.68936620834817
7.5120002143085 1.53405550820655
7.52800021506846 1.45810379147889
7.54400021582842 1.67107045852529
7.56000021658838 1.72263737321216
7.57600021734834 2.24206650420342
7.5920002181083 1.78612726677937
7.60800021886825 1.87142463880336
7.62400021962821 1.98208269465512
7.64000022038817 1.99253991903554
7.65600022114813 1.82206912125418
7.67200022190809 1.74121307351477
7.68800022266805 1.82975959396597
7.70400022342801 1.32544342969599
7.72000022418797 1.22733387209145
7.73600022494793 1.21391202250445
7.75200022570789 1.44650163837538
7.76800022646785 1.48747609600032
7.78400022722781 1.79074312273238
7.80000022798777 1.90463011040081
7.81600022874772 1.64766186953901
7.83200022950768 1.48812685928327
7.84800023026764 2.09673840541745
7.8640002310276 1.61484178432331
7.88000023178756 2.03320782449219
7.89600023254752 1.84968223181217
7.91200023330748 1.65184923439014
7.92800023406744 1.20028847496012
7.9440002348274 1.26790273199349
7.96000023558736 1.27854916935736
7.97600023634732 1.27763717454269
7.99200023710728 1.26322619798566
8.00800023786724 1.28215093548701
8.0240002386272 1.27604294892941
8.04000023938715 1.45563815064105
8.05600024014711 1.32711339823289
8.07200024090707 1.12520657900531
8.08800024166703 0.961428192069485
8.10400024242699 1.434746226446
8.12000024318695 1.78667877067133
8.13600024394691 1.09343704739053
8.15200024470687 1.22152383352114
8.16800024546683 1.12147417699277
8.18400024622679 1.23691088603768
8.20000024698675 1.3069875520309
8.21600024774671 1.24280086904643
8.23200024850667 1.25059945116164
8.24800024926662 1.19243109247942
8.26400025002658 1.348177653316
8.28000025078654 1.02279519645242
8.2960002515465 1.01104080047715
8.31200025230646 0.734887732215194
8.32800025306642 0.957855417972135
8.34400025382638 1.46712468374818
8.36000025458634 0.93776656851268
8.3760002553463 1.02743133858293
8.39200025610626 1.48403999480205
8.40800025686622 1.46986999960588
8.42400025762618 0.848743592550898
8.44000025838614 1.30725156264455
8.45600025914609 1.2472684707673
8.47200025990605 1.10893234813569
8.48800026066601 1.26077330356264
8.50400026142597 0.89738468805001
8.52000026218593 1.12601693301466
8.53600026294589 1.58853264015113
8.55200026370585 1.49403823386623
8.56800026446581 1.45595799763159
8.58400026522577 1.02170239670157
8.60000026598573 1.03139872500433
8.61600026674569 1.26836714388869
8.63200026750565 1.41474627306483
8.6480002682656 1.60887058155065
8.66400026902556 1.38454710685246
8.68000026978552 1.6683489882009
8.69600027054548 1.44814631080145
8.71200027130544 1.6000638422979
8.7280002720654 1.82160598093915
8.74400027282536 1.79710049552686
8.76000027358532 1.8649781495857
8.77600027434528 2.20831478793038
8.79200027510524 2.58009822769942
8.8080002758652 3.30912494832819
8.82400027662516 3.31563749357277
8.84000027738512 2.12133076100784
8.85600027814507 1.70381931861999
8.87200027890503 1.97037677672247
8.88800027966499 1.3723764159509
8.90400028042495 1.42811041898007
8.92000028118491 0.97524500608753
8.93600028194487 1.22693461574164
8.95200028270483 0.865919185434471
8.96800028346479 0.697424948804052
8.98400028422475 0.770896720121614
9.00000028498471 0.899340181707068
9.01600028574467 0.826252276783734
9.03200028650463 0.804273291407133
9.04800028726459 0.713477339430918
9.06400028802454 0.806702207821855
9.0800002887845 1.19168859273827
9.09600028954446 0.496389849269166
9.11200029030442 0.413624981628818
9.12800029106438 0.487945458465532
9.14400029182434 0.627038288225465
9.1600002925843 0.519381348021543
9.17600029334426 0.74553656255058
9.19200029410422 0.506816607990258
9.20800029486418 0.658617100829609
9.22400029562414 0.794937940114277
9.24000029638409 0.778984697133815
9.25600029714405 0.183726987795611
9.27200029790401 0.758745620689098
9.28800029866397 0.818216923837994
9.30400029942393 0.586621742787125
9.32000030018389 0.73194838618295
9.33600030094385 0.774506527261805
9.35200030170381 0.889717253725461
9.36800030246377 1.155413530553
9.38400030322373 0.954063985803119
9.40000030398369 1.06385052569931
9.41600030474365 1.15452767394438
9.43200030550361 0.691676846992587
9.44800030626356 0.542644411634791
9.46400030702352 0.946766613720232
9.48000030778348 0.531576630547972
9.49600030854344 0.72950893446118
9.5120003093034 1.04651261510209
9.52800031006336 0.64563074362686
9.54400031082332 0.686712981937445
9.56000031158328 0.452578364674865
9.57600031234324 0.846971835133012
9.5920003131032 1.08344963483929
9.60800031386316 0.957382059589653
9.62400031462312 1.01542322645385
9.64000031538307 0.845534256488337
9.65600031614303 0.745970780949277
9.67200031690299 1.08862987144805
9.68800031766295 0.695986442157919
9.70400031842291 0.415495009002605
9.72000031918287 0.303445396277343
9.73600031994283 0.268274491292466
9.75200032070279 0.245779499363076
9.76800032146275 0.510253249670264
9.78400032222271 0.814163907410883
9.80000032298267 0.96558008542824
9.81600032374263 0.491374437143683
9.83200032450259 0.816226360632644
9.84800032526254 0.876305172864013
9.8640003260225 0.690113151624052
9.88000032678246 0.734263826214143
9.89600032754242 0.741276521072638
9.91200032830238 0.321895785642614
9.92800032906234 0.252407450276404
9.9440003298223 0.742867420331965
9.96000033058226 0.949613447718068
9.97600033134222 0.877849106934892
9.99200033210218 0.624326795576707
10.0080003328621 0.397643810634598
10.0240003336221 0.172724711148049
10.0400003343821 0.385867952687914
10.056000335142 0.777640178638663
10.072000335902 0.697509583698194
10.0880003366619 0.472786706709911
10.1040003374219 0.511214820005996
10.1200003381819 0.995761439080281
10.1360003389418 0.706639652737369
10.1520003397018 0.660996281997319
10.1680003404617 0.603949747125961
10.1840003412217 0.28168040345613
10.2000003419816 0.508520954006297
10.2160003427416 0.850132878258746
10.2320003435016 0.648457618930578
10.2480003442615 0.616741410417108
10.2640003450215 0.882373181699997
10.2800003457814 0.475362105139098
10.2960003465414 0.440328853941443
10.3120003473014 0.467702787982752
10.3280003480613 0.482235420939153
10.3440003488213 0.567898841524494
10.3600003495812 0.668480938483308
10.3760003503412 0.620521891562777
10.3920003511012 0.524354569706267
10.4080003518611 0.3620903999955
10.4240003526211 0.332286939444742
10.440000353381 0.736026663280859
10.456000354141 0.902244961666948
10.472000354901 0.917314078869635
10.4880003556609 0.721717818384834
10.5040003564209 0.725823951854675
10.5200003571808 0.30039516797695
10.5360003579408 0.483916349958513
10.5520003587008 0.31714423258909
10.5680003594607 0.435209191316259
10.5840003602207 0.650963037169843
10.6000003609806 0.274437158128821
10.6160003617406 0.61646687563225
10.6320003625005 0.684412374530705
10.6480003632605 0.922983237064862
10.6640003640205 0.820141720282187
10.6800003647804 0.549314265224236
10.6960003655404 0.448894694429478
10.7120003663003 0.488749777458963
10.7280003670603 0.526655193645935
10.7440003678203 0.793352721608839
10.7600003685802 0.587087138398447
10.7760003693402 0.55523206600621
10.7920003701001 0.620985667850801
10.8080003708601 0.660522665403192
10.8240003716201 0.785260814686787
10.84000037238 0.827158421477714
10.85600037314 0.938771244951791
10.8720003738999 0.540508408303486
10.8880003746599 0.299914796487174
10.9040003754199 0.113450904254453
10.9200003761798 0.327080137689483
10.9360003769398 0.575618296485171
10.9520003776997 0.803293607645607
10.9680003784597 0.713072337354971
10.9840003792196 0.58647834598001
11.0000003799796 0.377603754070037
11.0160003807396 0.637268573884038
11.0320003814995 0.776406338641781
11.0480003822595 0.50883524512922
11.0640003830194 0.572112135087822
11.0800003837794 0.849246738409112
11.0960003845394 0.497283084797543
11.1120003852993 0.853330216685332
11.1280003860593 0.619477104214536
11.1440003868192 0.671917751324496
11.1600003875792 1.00736234217219
11.1760003883392 0.60871981908306
11.1920003890991 0.71475960967738
11.2080003898591 1.05803768157101
11.224000390619 1.16243583712728
11.240000391379 1.27538538656136
11.256000392139 1.19302682755612
11.2720003928989 1.04126457789728
11.2880003936589 0.742236604074845
11.3040003944188 1.03402618597028
11.3200003951788 1.09501915461201
11.3360003959388 0.871857992361889
11.3520003966987 0.500959578580465
11.3680003974587 0.883317056270959
11.3840003982186 0.674968610283313
11.4000003989786 0.757876488473968
11.4160003997385 0.869365952484143
11.4320004004985 1.17231097580841
11.4480004012585 1.01234659775787
11.4640004020184 0.911100289095556
11.4800004027784 1.47673868797915
11.4960004035383 1.20836604525959
11.5120004042983 1.32741967287732
11.5280004050583 1.22800035537071
11.5440004058182 1.1795176259722
11.5600004065782 1.07030497099237
11.5760004073381 1.29042098126017
11.5920004080981 1.65747288018567
11.6080004088581 1.45221765350823
11.624000409618 1.00657819548188
11.640000410378 1.32182342983553
11.6560004111379 1.0752372135604
11.6720004118979 0.802656313178204
11.6880004126579 1.04387458379691
11.7040004134178 0.877283887882442
11.7200004141778 0.703728844745463
11.7360004149377 1.37111726972998
11.7520004156977 1.29078201517742
11.7680004164577 0.998047010639702
11.7840004172176 0.958398120668933
11.8000004179776 0.907493668221591
11.8160004187375 1.12275576746006
11.8320004194975 1.36691231040552
11.8480004202574 1.88001620451498
11.8640004210174 1.77158917955508
11.8800004217774 1.59326068321491
11.8960004225373 1.51657554946986
11.9120004232973 1.53122043923278
11.9280004240572 1.35442799108652
11.9440004248172 1.6011250222474
11.9600004255772 1.55087382868728
11.9760004263371 1.60596688263634
11.9920004270971 2.01265709386183
12.008000427857 1.97923574508583
12.024000428617 2.64450460150477
12.040000429377 2.22292900628428
12.0560004301369 2.24464844794319
12.0720004308969 2.47558974131282
12.0880004316568 2.40123126416341
12.1040004324168 2.77223141480881
12.1200004331768 2.97861349518984
12.1360004339367 3.32865256642612
12.1520004346967 3.76575469956089
12.1680004354566 3.58949137412262
12.1840004362166 4.27986675039083
12.2000004369766 4.63657243918626
12.2160004377365 5.26276931507362
12.2320004384965 5.44496660797058
12.2480004392564 6.26532470553219
12.2640004400164 7.32588985391038
12.2800004407763 7.87217666429076
12.2960004415363 9.12267918780296
12.3120004422963 9.90099923087347
12.3280004430562 10.464016258286
12.3440004438162 10.4403790743311
12.3600004445761 8.92194811614784
12.3760004453361 7.50983785190722
12.3920004460961 6.20037526601807
12.408000446856 4.76927902037432
12.424000447616 4.29154031525966
12.4400004483759 3.83178354078816
12.4560004491359 3.57182024958823
12.4720004498959 3.30313074529543
12.4880004506558 2.79099650354323
12.5040004514158 2.7090137429214
12.5200004521757 2.36984252913057
12.5360004529357 2.06280117309802
12.5520004536957 2.09072133021966
12.5680004544556 2.01359820387779
12.5840004552156 1.69923362882762
12.6000004559755 1.41982717872466
12.6160004567355 1.56613150163064
12.6320004574954 1.76149482703
12.6480004582554 1.3690869784893
12.6640004590154 1.00869947257241
12.6800004597753 1.2522456309396
12.6960004605353 1.21270918079659
12.7120004612952 0.874770794205544
12.7280004620552 1.14597423374846
12.7440004628152 0.717557654050443
12.7600004635751 1.4559805908055
12.7760004643351 1.28702472048386
12.792000465095 0.809659838043057
12.808000465855 0.998390675162412
12.824000466615 1.04726095294367
12.8400004673749 0.67794201522641
12.8560004681349 0.520363802150291
12.8720004688948 1.10743836235099
12.8880004696548 0.889991726194079
12.9040004704148 0.815717714624753
12.9200004711747 0.625121696499864
12.9360004719347 0.756586631445243
12.9520004726946 0.449591633236373
12.9680004734546 0.578826069894506
12.9840004742146 0.737733447695122
13.0000004749745 0.562434894167451
13.0160004757345 0.736661390283668
13.0320004764944 0.569552908720564
13.0480004772544 0.404149398381337
13.0640004780143 0.349375633865193
13.0800004787743 0.348945783852066
13.0960004795343 0.49621843530768
13.1120004802942 0.460880209296086
13.1280004810542 0.376734304137466
13.1440004818141 0.456273971302736
13.1600004825741 0.7068581739266
13.1760004833341 0.541194909445743
13.192000484094 0.411160540298605
13.208000484854 0.597424670993201
13.2240004856139 0.617947397661483
13.2400004863739 0.214754946823723
13.2560004871339 0.557792663311425
13.2720004878938 0.649617660290879
13.2880004886538 0.687714554666256
13.3040004894137 0.69975648399441
13.3200004901737 0.387670464215187
13.3360004909337 0.581791427092147
13.3520004916936 0.448716284134184
13.3680004924536 0.43972893069059
13.3840004932135 0.24449320957183
13.4000004939735 0.5280525272715
13.4160004947335 1.03528160385535
13.4320004954934 0.616871344888549
13.4480004962534 0.712188652619261
13.4640004970133 0.678909162651152
13.4800004977733 0.496386990941639
13.4960004985332 0.296364821470368
13.5120004992932 0.511479412435053
13.5280005000532 0.453874728757773
13.5440005008131 0.675267868779237
13.5600005015731 0.889595817630923
13.576000502333 0.663665101875699
13.592000503093 0.595544838756165
13.608000503853 0.597052731215642
13.6240005046129 0.562631642200193
13.6400005053729 0.814914857908036
13.6560005061328 0.460395539832064
13.6720005068928 0.228783406589594
13.6880005076528 0.273516732899406
13.7040005084127 0.523589563300552
13.7200005091727 0.399494277251645
13.7360005099326 0.458032842228681
13.7520005106926 0.185573300016294
13.7680005114526 0.604576103592677
13.7840005122125 0.301805230280603
13.8000005129725 0.756260501847182
13.8160005137324 0.425482306596805
13.8320005144924 0.617452955692153
13.8480005152523 1.00035815237926
13.8640005160123 0.776551805026033
13.8800005167723 0.386804590829442
13.8960005175322 0.770099040005794
13.9120005182922 0.938055986685299
13.9280005190521 0.481886000332558
13.9440005198121 0.273885030916942
13.9600005205721 0.338507465009004
13.976000521332 0.5151045667207
13.992000522092 0.542900877500248
14.0080005228519 0.730226733186834
14.0240005236119 0.826905037619348
14.0400005243719 0.250555196340368
14.0560005251318 0.433155274532027
14.0720005258918 0.434505858125274
14.0880005266517 0.378030225835404
14.1040005274117 0.478475754052729
14.1200005281717 0.359254630514847
14.1360005289316 0.752355547558478
14.1520005296916 0.778689169826656
14.1680005304515 0.382231507849349
14.1840005312115 0.651715882108096
14.2000005319715 0.758891739661237
14.2160005327314 0.935554324291099
14.2320005334914 0.720908481764718
14.2480005342513 0.452280104224251
14.2640005350113 0.815720475700815
14.2800005357712 0.497504395765477
14.2960005365312 0.242455430501032
14.3120005372912 0.272119623242553
14.3280005380511 0.532763097552884
14.3440005388111 0.246507824435144
14.360000539571 0.51530042485413
14.376000540331 0.568941968137612
14.392000541091 0.480378739784888
14.4080005418509 0.197984379971819
14.4240005426109 0.209600738257162
14.4400005433708 0.806267774056835
14.4560005441308 0.827018022062036
14.4720005448908 0.580926775533488
14.4880005456507 0.531578191302891
14.5040005464107 0.630567673735612
14.5200005471706 0.579921315326256
14.5360005479306 0.840428138835843
14.5520005486906 0.73809364388184
14.5680005494505 0.660545840749394
14.5840005502105 0.389818513578597
14.6000005509704 0.454019557319043
14.6160005517304 0.638295083899997
14.6320005524904 0.351480666427564
14.6480005532503 0.477314825799221
14.6640005540103 0.385581587790309
14.6800005547702 0.249124272782183
14.6960005555302 0.62307293031367
14.7120005562901 0.771852228742747
14.7280005570501 0.372216984441028
14.7440005578101 0.66003028880532
14.76000055857 0.830636272937676
14.77600055933 0.558152991868701
14.7920005600899 0.307988650760107
14.8080005608499 0.38441965203136
14.8240005616099 0.694815422145597
14.8400005623698 0.614348481502525
14.8560005631298 0.383347741591979
14.8720005638897 0.212470171758675
14.8880005646497 0.627877021528445
14.9040005654097 0.634576844903835
14.9200005661696 0.444881723412861
14.9360005669296 0.574870771884649
14.9520005676895 0.710089240135193
14.9680005684495 0.734906366562367
14.9840005692095 0.671738785803289
15.0000005699694 0.729235339680439
15.0160005707294 0.706276736237555
15.0320005714893 0.465434413151824
15.0480005722493 0.354366607687753
15.0640005730093 0.885280968353126
15.0800005737692 0.712190514835751
15.0960005745292 0.222821464104481
15.1120005752891 0.905395028131309
15.1280005760491 0.929935410357762
15.144000576809 0.543384266254719
15.160000577569 0.464029585447561
15.176000578329 0.152929116651821
15.1920005790889 0.391723793416883
15.2080005798489 0.781297129301549
15.2240005806088 0.642838437425443
15.2400005813688 0.333231267972337
15.2560005821288 0.441280307094205
15.2720005828887 0.37172530504971
15.2880005836487 0.568926576159866
15.3040005844086 0.382094186712404
15.3200005851686 0.401764359816742
15.3360005859286 0.208279277607218
15.3520005866885 0.39235032505394
15.3680005874485 0.640310729275098
15.3840005882084 0.43275308030996
15.4000005889684 0.445847729223445
15.4160005897284 0.716646740574955
15.4320005904883 1.03917806996214
15.4480005912483 0.409473889436978
15.4640005920082 0.532927396610528
15.4800005927682 0.713727809000096
15.4960005935281 0.537422064404787
15.5120005942881 0.67918608228989
15.5280005950481 0.914268753968072
15.544000595808 0.950863202644864
15.560000596568 0.76151341089081
15.5760005973279 0.904435807024779
15.5920005980879 0.553432097114777
15.6080005988479 0.720067676057631
15.6240005996078 0.776315857762505
15.6400006003678 0.344134553538302
15.6560006011277 0.370643831359924
15.6720006018877 0.383572921214496
15.6880006026477 0.942273425222027
15.7040006034076 0.574131585168811
15.7200006041676 0.439093297627508
15.7360006049275 0.497553212417092
15.7520006056875 0.294433458388578
15.7680006064475 0.374072340281556
15.7840006072074 0.625258581645069
15.8000006079674 0.62169249258455
15.8160006087273 0.463916973601679
15.8320006094873 0.492434323089267
15.8480006102473 0.565779803073282
15.8640006110072 0.635543719720502
15.8800006117672 0.691564439377176
15.8960006125271 0.574401887430255
15.9120006132871 0.527831661711307
15.928000614047 0.61556618218545
15.944000614807 0.334342706761452
15.960000615567 0.436939378894399
15.9760006163269 0.209571557914488
15.9920006170869 0.334466977574296
16.0080006178468 0.687328778464504
16.0240006186068 0.425972920483877
16.0400006193668 0.454644119443143
16.0560006201267 0.496378174059286
16.0720006208867 0.663378205502189
16.0880006216466 0.627239714345285
16.1040006224066 0.199383054732195
16.1200006231666 0.534528743560788
16.1360006239265 0.442371959446659
16.1520006246865 0.531165579711022
16.1680006254464 0.673566090629214
16.1840006262064 0.471517508500661
16.2000006269664 0.725837061435138
16.2160006277263 0.786293022219738
16.2320006284863 1.05846138082286
16.2480006292462 0.588099365425213
16.2640006300062 0.293688953065713
16.2800006307661 0.399721278853528
16.2960006315261 0.323778113389695
16.3120006322861 0.62218111687676
16.328000633046 0.550739970010826
16.344000633806 0.462974652191583
16.3600006345659 0.597979557827379
16.3760006353259 0.573819684253673
16.3920006360859 0.453962629919198
16.4080006368458 0.659270659884516
16.4240006376058 0.551665641266805
16.4400006383657 0.149255422532354
16.4560006391257 0.770852603155539
16.4720006398857 1.00770487570632
16.4880006406456 0.667967395824034
16.5040006414056 0.534765168202332
16.5200006421655 0.390500580522916
16.5360006429255 0.302419426969941
16.5520006436855 0.456580738600849
16.5680006444454 0.894844191382544
16.5840006452054 0.821936852877029
16.6000006459653 0.686730445516403
16.6160006467253 0.564095715209266
16.6320006474853 0.578048074952269
16.6480006482452 0.638528388406339
16.6640006490052 0.795251734943534
16.6800006497651 0.742650616716087
16.6960006505251 0.69094677263711
16.712000651285 0.462311259265492
16.728000652045 0.572491394332445
16.744000652805 0.623361117155545
16.7600006535649 0.800790414864961
16.7760006543249 0.901115213231758
16.7920006550848 0.729803477231712
16.8080006558448 0.442698068331802
16.8240006566048 0.377142808165415
16.8400006573647 0.627830269891682
16.8560006581247 0.450552770129747
16.8720006588846 0.566854156076895
16.8880006596446 0.527113980221657
16.9040006604046 0.768847426384113
16.9200006611645 0.869409186981885
16.9360006619245 0.525574242613651
16.9520006626844 0.532504281004767
16.9680006634444 0.182043029798081
16.9840006642044 0.23031548262694
17.0000006649643 0.414355670827735
17.0160006657243 0.812425728578166
17.0320006664842 0.340238036994213
17.0480006672442 0.395730877581869
17.0640006680042 0.74431768325849
17.0800006687641 0.719147502145379
17.0960006695241 0.869959337782179
17.112000670284 0.65650786128413
17.128000671044 0.804529973744582
17.1440006718039 0.808983444898255
17.1600006725639 0.882602527763508
17.1760006733239 0.667935504715132
17.1920006740838 0.578958247578905
17.2080006748438 0.934274898722894
17.2240006756037 0.664046606871475
17.2400006763637 0.814875301906049
17.2560006771237 0.897156394649382
17.2720006778836 0.631445233355128
17.2880006786436 0.561480536853137
17.3040006794035 0.917429371730204
17.3200006801635 1.14496330612016
17.3360006809235 0.714202275563064
17.3520006816834 0.695993315072249
17.3680006824434 0.859236820997126
17.3840006832033 0.991645531995305
17.4000006839633 0.92122236633573
17.4160006847233 1.01382046975277
17.4320006854832 1.0800238063407
17.4480006862432 0.855777719298244
17.4640006870031 0.848982750333095
17.4800006877631 0.82002348805398
17.4960006885231 0.756673991340312
17.512000689283 0.899406455523655
17.528000690043 0.517698654719791
17.5440006908029 0.952072919192904
17.5600006915629 0.906276206013954
17.5760006923228 0.532116128856449
17.5920006930828 1.07040182337135
17.6080006938428 0.968848415108917
17.6240006946027 1.08666142045623
17.6400006953627 1.2107919006459
17.6560006961226 0.847411785727326
17.6720006968826 1.22869823526265
17.6880006976426 1.33823941953982
17.7040006984025 1.38138452667773
17.7200006991625 1.09179400810597
17.7360006999224 0.862333409948066
17.7520007006824 0.92449268469014
17.7680007014424 0.951840253864583
17.7840007022023 0.671804260144395
17.8000007029623 0.970282904290739
17.8160007037222 1.19835180498762
17.8320007044822 1.12131011069084
17.8480007052422 0.501814329903558
17.8640007060021 0.66326653469787
17.8800007067621 0.701159494383862
17.896000707522 0.970057271166718
17.912000708282 0.809237381804037
17.9280007090419 0.830863161212056
17.9440007098019 0.734413128914602
17.9600007105619 0.843317331350773
17.9760007113218 0.812206608877299
17.9920007120818 0.967858582883149
18.0080007128417 0.605267624618469
18.0240007136017 0.49919872802055
18.0400007143617 0.649805044904122
18.0560007151216 0.472921878871041
18.0720007158816 0.412773459095011
18.0880007166415 0.261320989060424
18.1040007174015 0.655009478755096
18.1200007181615 0.744527320509142
18.1360007189214 0.487340473153763
18.1520007196814 0.773531619929418
18.1680007204413 0.502696596075864
18.1840007212013 0.540035963366179
18.2000007219613 0.95212405077036
18.2160007227212 0.746054723665797
18.2320007234812 0.739000700101105
18.2480007242411 0.711651699104284
18.2640007250011 0.939997320188633
18.2800007257611 0.620174943000633
18.296000726521 0.296113149173001
18.312000727281 0.793361959226861
18.3280007280409 0.848126757221833
18.3440007288009 0.933620026781732
18.3600007295608 0.77060846505784
18.3760007303208 0.570205152761819
18.3920007310808 0.694639258744546
18.4080007318407 0.833071078171397
18.4240007326007 0.78147960355655
18.4400007333606 0.720799827076394
18.4560007341206 0.845847131209705
18.4720007348806 0.610290167348454
18.4880007356405 0.62708608409673
18.5040007364005 0.634910258834152
18.5200007371604 1.01318378159198
18.5360007379204 0.788368760755725
18.5520007386804 0.65400071089371
18.5680007394403 0.333312780726231
18.5840007402003 0.244663396848948
18.6000007409602 0.557131181297381
18.6160007417202 0.323019541605305
18.6320007424802 0.363379478893524
18.6480007432401 0.555029584215346
18.6640007440001 0.798978061051285
18.68000074476 0.485452632282644
18.69600074552 0.680731090424727
18.71200074628 0.774414329587879
18.7280007470399 0.714620046120343
18.7440007477999 0.538883797152502
18.7600007485598 0.538910477535589
18.7760007493198 0.221063084249316
18.7920007500797 0.584142125783272
18.8080007508397 0.883599744474141
18.8240007515997 0.573526868789308
18.8400007523596 0.568872185065954
18.8560007531196 0.424632202545947
18.8720007538795 0.482780228646433
18.8880007546395 0.32190782615605
18.9040007553995 0.448122827480468
18.9200007561594 0.322037841006376
18.9360007569194 0.489504619711695
18.9520007576793 0.389629406481465
18.9680007584393 0.607928364587874
18.9840007591993 0.510602733283507
19.0000007599592 0.272206346221758
19.0160007607192 0.382834715903689
19.0320007614791 0.249713395745264
19.0480007622391 0.443154136970296
19.0640007629991 0.674039923081077
19.080000763759 0.756827353507868
19.096000764519 0.536364431681058
19.1120007652789 0.3285046861147
19.1280007660389 0.710200025848231
19.1440007667989 0.338829086674876
19.1600007675588 0.618651111004139
19.1760007683188 0.422686480425918
19.1920007690787 0.421562908827479
19.2080007698387 0.553646405373913
19.2240007705986 0.601502850410467
19.2400007713586 0.89679282060569
19.2560007721186 0.78576323898648
19.2720007728785 0.483908007869161
19.2880007736385 0.373854544220677
19.3040007743984 0.559536013596048
19.3200007751584 0.564896527356305
19.3360007759184 0.745784743527553
19.3520007766783 0.782693541137967
19.3680007774383 0.406343693025782
19.3840007781982 0.429753350681272
19.4000007789582 0.615392398478795
19.4160007797182 0.815212033216421
19.4320007804781 1.11444112571827
19.4480007812381 1.13274955213667
19.464000781998 0.801173377124734
19.480000782758 1.1220418568477
19.496000783518 0.86029313240296
19.5120007842779 0.869757610545138
19.5280007850379 1.40030404223317
19.5440007857978 1.24537844096317
19.5600007865578 1.69403589320012
19.5760007873177 1.80977112450736
19.5920007880777 2.23993210794487
19.6080007888377 2.33035852068748
19.6240007895976 2.86226917811839
19.6400007903576 2.89553612965238
19.6560007911175 3.13213732845728
19.6720007918775 3.4530655417943
19.6880007926375 4.05395250374495
19.7040007933974 4.44335678348772
19.7200007941574 4.81653286287234
19.7360007949173 4.75867117461574
19.7520007956773 5.29043568201131
19.7680007964373 5.80802999495988
19.7840007971972 6.06051336988681
19.8000007979572 6.56508958737359
19.8160007987171 6.23092696442307
19.8320007994771 6.5548708980553
19.8480008002371 6.57636824400799
19.864000800997 6.0659892039166
19.880000801757 6.23710667115719
19.8960008025169 6.32271107124043
19.9120008032769 6.27708320996776
19.9280008040369 5.64342146298297
19.9440008047968 5.73893694098504
19.9600008055568 5.62095671161829
19.9760008063167 5.08883721202981
19.9920008070767 4.70527520552205
20.0080008078366 4.66331847295566
20.0240008085966 4.70510201557496
20.0400008093566 4.30956379114992
20.0560008101165 4.09651540487096
20.0720008108765 3.92802828153766
20.0880008116364 4.00605352084163
20.1040008123964 4.4121781603643
20.1200008131564 4.3245554189497
20.1360008139163 4.06675360395615
20.1520008146763 4.12897786512281
20.1680008154362 4.01904573250494
20.1840008161962 4.23435754102001
20.2000008169562 3.79550638248796
20.2160008177161 3.95548406639896
20.2320008184761 3.74700965243652
20.248000819236 3.99747675140696
20.264000819996 4.28451983383728
20.280000820756 4.04281916455558
20.2960008215159 4.06988458908397
20.3120008222759 3.88981871288987
20.3280008230358 4.14974984739536
20.3440008237958 4.12009593159824
20.3600008245558 3.74908436331378
20.3760008253157 3.70015419451244
20.3920008260757 3.68903922219147
20.4080008268356 3.41659345789799
20.4240008275956 3.44811936996342
20.4400008283555 3.27756494731321
20.4560008291155 3.45832301557839
20.4720008298755 3.64292286137369
20.4880008306354 3.52630134038104
20.5040008313954 3.42235887353063
20.5200008321553 3.29775146739957
20.5360008329153 3.67405037196474
20.5520008336753 3.69083013141758
20.5680008344352 3.57386076960156
20.5840008351952 3.4253271878378
20.6000008359551 3.50717559561815
20.6160008367151 3.4973282698844
20.6320008374751 3.83572072558717
20.648000838235 4.07810035054985
20.664000838995 4.33268948596639
20.6800008397549 4.64063656162866
20.6960008405149 5.10421187481528
20.7120008412749 5.62047349771446
20.7280008420348 6.17537915758958
20.7440008427948 7.58707290499192
20.7600008435547 9.00253995944074
20.7760008443147 12.0581402965393
20.7920008450747 15.4918105255786
20.8080008458346 19.6059377189826
20.8240008465946 22.6570175548898
20.8400008473545 20.12239481428
20.8560008481145 16.6882492883766
20.8720008488744 14.2117373711024
20.8880008496344 11.6938569504127
20.9040008503944 8.27316108992804
20.9200008511543 6.19681570242117
20.9360008519143 4.94767855266728
20.9520008526742 4.17097154433099
20.9680008534342 3.75749651761017
20.9840008541942 3.4037511504301
21.0000008549541 3.34403512169641
21.0160008557141 3.09642035307676
21.032000856474 3.31900400803615
21.048000857234 3.50592652856743
21.064000857994 2.89305267869191
21.0800008587539 2.78947286682687
21.0960008595139 2.73922628887519
21.1120008602738 2.75596331131474
21.1280008610338 3.04721226650531
21.1440008617938 2.76638994194617
21.1600008625537 2.65206005535239
21.1760008633137 2.6548114783151
21.1920008640736 2.8610390605494
21.2080008648336 2.98427875397365
21.2240008655935 2.9221832073954
21.2400008663535 2.98843680492774
21.2560008671135 3.06452577255577
21.2720008678734 2.74285794484942
21.2880008686334 3.0407423112047
21.3040008693933 3.06692144934146
21.3200008701533 2.60426264407925
21.3360008709133 2.59325296559893
21.3520008716732 3.00129198335007
21.3680008724332 3.00804070035905
21.3840008731931 2.30144282684251
21.4000008739531 2.39989098062004
21.4160008747131 2.63273892919349
21.432000875473 2.72505118725648
21.448000876233 2.40515164928204
21.4640008769929 2.51160957744962
21.4800008777529 2.70954775168853
21.4960008785129 2.43165814329353
21.5120008792728 2.32761430900497
21.5280008800328 2.54661445849442
21.5440008807927 2.79827700131428
21.5600008815527 2.40577767839556
21.5760008823127 2.05106512600279
21.5920008830726 2.33484375758508
21.6080008838326 2.27821443137876
21.6240008845925 2.28692211785404
21.6400008853525 2.22703084950633
21.6560008861124 2.22827086375833
21.6720008868724 1.82752189273435
21.6880008876324 1.86738571343032
21.7040008883923 2.43743651614591
21.7200008891523 2.14014317571439
21.7360008899122 1.9523959760362
21.7520008906722 1.8821606640019
21.7680008914322 2.1281159166904
21.7840008921921 1.94166332715906
21.8000008929521 2.08188697987643
21.816000893712 1.71828538169339
21.832000894472 1.86525703364165
21.848000895232 1.572529483212
21.8640008959919 1.64171393586743
21.8800008967519 1.66021831115622
21.8960008975118 1.72309689679814
21.9120008982718 1.78170216444296
21.9280008990318 1.86696390115328
21.9440008997917 1.95323016840159
21.9600009005517 2.25591365233796
21.9760009013116 2.05246371442225
21.9920009020716 1.76386036270234
22.0080009028316 1.93714444463152
22.0240009035915 1.96887925730819
22.0400009043515 1.58611101616414
22.0560009051114 2.03961023340579
22.0720009058714 2.0793551689949
22.0880009066313 1.64193934116257
22.1040009073913 1.40292459522903
22.1200009081513 1.3702324748546
22.1360009089112 1.63105433099414
22.1520009096712 1.26560808558995
22.1680009104311 1.19810995638604
22.1840009111911 1.46579758699754
22.2000009119511 1.51972155390803
22.216000912711 1.62369496439796
22.232000913471 1.17469749008261
22.2480009142309 1.01627352322541
22.2640009149909 1.23800425384062
22.2800009157509 1.35131278774902
22.2960009165108 1.0359846100755
22.3120009172708 0.669704504031543
22.3280009180307 1.1785276107179
22.3440009187907 1.1913615819976
22.3600009195507 1.27895392326667
22.3760009203106 1.36283391060965
22.3920009210706 1.3708564894088
22.4080009218305 1.08485135006938
22.4240009225905 0.838400782948055
22.4400009233504 1.11071285782449
22.4560009241104 1.38098345855806
22.4720009248704 1.06980804030998
22.4880009256303 1.10101749135936
22.5040009263903 1.26935915508503
22.5200009271502 1.48324045134079
22.5360009279102 1.17534587476495
22.5520009286702 0.839349441463931
22.5680009294301 1.10292606631961
22.5840009301901 1.56533315183994
22.60000093095 1.01213288945174
22.61600093171 0.771658939826942
22.63200093247 0.857027889968379
22.6480009332299 1.02437855689569
22.6640009339899 1.1313148452293
22.6800009347498 1.32492952599179
22.6960009355098 1.03635159408907
22.7120009362698 1.13877504811105
22.7280009370297 0.930789724409072
22.7440009377897 1.14529057109233
22.7600009385496 1.27759007710841
22.7760009393096 1.02713204844281
22.7920009400696 1.31540265743467
22.8080009408295 1.08396724951685
22.8240009415895 1.2112030324748
22.8400009423494 1.44841524976368
22.8560009431094 1.59779299963016
22.8720009438693 1.42624669477135
22.8880009446293 1.13601930796985
22.9040009453893 1.11837602805621
22.9200009461492 1.24003291822796
22.9360009469092 1.20525861101204
22.9520009476691 1.4189508990489
22.9680009484291 1.31833131109564
22.9840009491891 1.20430496814793
23.000000949949 1.27749701684333
23.016000950709 1.12048341425536
23.0320009514689 1.36593385023587
23.0480009522289 1.30795671013031
23.0640009529889 0.984524658003672
23.0800009537488 1.20024222287066
23.0960009545088 1.27734657632185
23.1120009552687 1.17244399951271
23.1280009560287 1.21736705133112
23.1440009567887 1.20600917728726
23.1600009575486 1.27292540612024
23.1760009583086 1.32212616894751
23.1920009590685 1.10802504899946
23.2080009598285 0.993095618945883
23.2240009605885 0.941727816181558
23.2400009613484 1.03686113396895
23.2560009621084 1.00442907314251
23.2720009628683 0.91364223903993
23.2880009636283 1.17056122877056
23.3040009643882 1.17912521735153
23.3200009651482 0.974768530388186
23.3360009659082 0.714941735577833
23.3520009666681 1.17047461688602
23.3680009674281 1.18553943367667
23.384000968188 1.21551894015461
23.400000968948 1.31220153422653
23.416000969708 1.09566680037215
23.4320009704679 1.35609395573272
23.4480009712279 1.1026613368199
23.4640009719878 1.0303231476609
23.4800009727478 1.0252797147464
23.4960009735078 1.05482112305739
23.5120009742677 1.15193693860894
23.5280009750277 0.799257666572375
23.5440009757876 0.687300132608822
23.5600009765476 0.895756252800727
23.5760009773076 1.36162153172736
23.5920009780675 1.36637027557887
23.6080009788275 0.891970448314137
23.6240009795874 1.084961477782
23.6400009803474 1.22647677084101
23.6560009811074 1.11366099421871
23.6720009818673 1.21431650477062
23.6880009826273 1.10168152004646
23.7040009833872 1.0884943734749
23.7200009841472 1.18599206965096
23.7360009849071 0.84242401164474
23.7520009856671 0.983148288373904
23.7680009864271 1.16135770093586
23.784000987187 1.11355614600957
23.800000987947 0.789014454601299
23.8160009887069 0.708935337706219
23.8320009894669 0.87654826775068
23.8480009902269 1.06900576562925
23.8640009909868 1.25575777902201
23.8800009917468 0.718192203510469
23.8960009925067 0.669599332413298
23.9120009932667 1.28485029066405
23.9280009940267 1.30694421064094
23.9440009947866 1.28618636651863
23.9600009955466 1.29223182407017
23.9760009963065 0.960569060907627
23.9920009970665 1.45457988115968
24.0080009978265 1.32892716249959
24.0240009985864 1.01760901257901
24.0400009993464 1.29661307698765
24.0560010001063 0.81026896458591
24.0720010008663 0.75432953945824
24.0880010016262 0.788127272416148
24.1040010023862 1.00143013770647
24.1200010031462 0.937621127849537
24.1360010039061 0.799529751198392
24.1520010046661 0.832652585518177
24.168001005426 0.796303549903206
24.184001006186 0.842506172042031
24.200001006946 0.833468782609007
24.2160010077059 0.929155760395632
24.2320010084659 1.15605269393533
24.2480010092258 1.04198623157305
24.2640010099858 1.09099625856999
24.2800010107458 1.37260344107525
24.2960010115057 1.06106762906676
24.3120010122657 0.897742125077018
24.3280010130256 0.926021158189563
24.3440010137856 1.30679984340908
24.3600010145456 1.41530140570063
24.3760010153055 1.15160120421604
24.3920010160655 1.52024802991102
24.4080010168254 1.24784671938987
24.4240010175854 1.35996195922778
24.4400010183454 1.3034912457707
24.4560010191053 1.28306797986667
24.4720010198653 1.20544530474941
24.4880010206252 1.65387563210407
24.5040010213852 1.25003630214594
24.5200010221451 1.19075082094057
24.5360010229051 1.37844405255314
24.5520010236651 1.65473446936862
24.568001024425 1.57410300937312
24.584001025185 1.55046851548378
24.6000010259449 1.99297459311209
24.6160010267049 1.82345986530782
24.6320010274649 1.87905190712063
24.6480010282248 2.05493556479686
24.6640010289848 2.08492593334643
24.6800010297447 2.45172195730235
24.6960010305047 2.74573660105747
24.7120010312647 2.82573606877439
24.7280010320246 3.1078898943274
24.7440010327846 3.4679296928997
24.7600010335445 3.89071285214529
24.7760010343045 4.69636427905633
24.7920010350645 5.21903729527975
24.8080010358244 5.99704814114138
24.8240010365844 6.34140909534201
24.8400010373443 6.83254755996958
24.8560010381043 6.40222544897443
24.8720010388643 6.21967062733363
24.8880010396242 5.37549047763932
24.9040010403842 5.45906047212755
24.9200010411441 4.73626383845597
24.9360010419041 4.25818635332117
24.952001042664 3.79624047874897
24.968001043424 3.50090350996286
24.984001044184 3.52066716518992
25.0000010449439 2.84769395365811
25.0160010457039 2.70251182298109
25.0320010464638 3.0513473746016
25.0480010472238 2.62209775250673
25.0640010479838 2.74314385326997
25.0800010487437 2.41205919414416
25.0960010495037 2.5330925289228
25.1120010502636 2.4726582753166
25.1280010510236 2.40698782246643
25.1440010517836 2.20394547901168
25.1600010525435 2.39104985031685
25.1760010533035 2.38535264236696
25.1920010540634 2.58436176367391
25.2080010548234 2.56122822700348
25.2240010555834 2.33547086193079
25.2400010563433 2.71331970275384
25.2560010571033 2.80705807420956
25.2720010578632 3.44619309201705
25.2880010586232 2.99646863224199
25.3040010593832 2.80523055819069
25.3200010601431 2.52492600290683
25.3360010609031 2.42259484298343
25.352001061663 2.04091590181556
25.368001062423 1.91021469769468
25.3840010631829 2.19817294111371
25.4000010639429 2.04250749367392
25.4160010647029 2.11144272906336
25.4320010654628 2.48036077220255
25.4480010662228 1.98247588782295
25.4640010669827 1.32857420607211
25.4800010677427 1.48566792401916
25.4960010685027 1.91738736338764
25.5120010692626 1.4675256987731
25.5280010700226 1.22816848929479
25.5440010707825 1.55772012605563
25.5600010715425 1.87286036209027
25.5760010723025 1.62937951421819
25.5920010730624 1.45303514857556
25.6080010738224 1.3672824993581
25.6240010745823 1.3328543927842
25.6400010753423 1.46731800856171
25.6560010761023 1.30053970232194
25.6720010768622 1.58815209658476
25.6880010776222 1.66650761290608
25.7040010783821 1.48475452514164
25.7200010791421 1.38255418303305
25.736001079902 1.36963544653611
25.752001080662 1.40346456936374
25.768001081422 1.40270320046338
25.7840010821819 1.64857553534609
25.8000010829419 1.83372013590969
25.8160010837018 1.65633695629238
25.8320010844618 1.85172257088048
25.8480010852218 1.64440491009503
25.8640010859817 1.3667597945568
25.8800010867417 1.47311116455503
25.8960010875016 1.70773964528529
25.9120010882616 1.27786203018099
25.9280010890216 1.40376652989731
25.9440010897815 1.55718059140861
25.9600010905415 1.55056544093764
25.9760010913014 1.64791705167333
25.9920010920614 1.66871771011362
26.0080010928214 1.37029340372413
26.0240010935813 1.58835704557803
26.0400010943413 1.55698959961036
26.0560010951012 1.19944312632185
26.0720010958612 1.34935643505654
26.0880010966212 1.77715341083628
26.1040010973811 1.64287452953963
26.1200010981411 1.99674522795424
26.136001098901 1.63312601962963
26.152001099661 1.62285645713561
26.1680011004209 1.46515431559193
26.1840011011809 1.84725838858867
26.2000011019409 1.92102176882833
26.2160011027008 1.65994442172721
26.2320011034608 1.95643623902672
26.2480011042207 2.32738524260361
26.2640011049807 2.59855820830952
26.2800011057407 2.60459044470483
26.2960011065006 2.38339647032628
26.3120011072606 2.63805725447148
26.3280011080205 3.41352045050338
26.3440011087805 3.52112240318324
26.3600011095405 3.39505507724054
26.3760011103004 3.32539628168677
26.3920011110604 4.12643152711043
26.4080011118203 4.7051439721402
26.4240011125803 5.24250555315797
26.4400011133403 6.05666387229715
26.4560011141002 7.00025647091912
26.4720011148602 8.93427151590013
26.4880011156201 11.1276437264249
26.5040011163801 14.0512893654273
26.5200011171401 19.5314104250857
26.5360011179 27.77067911887
26.55200111866 40.8738093429919
26.5680011194199 59.9989498865774
26.5840011201799 80.9991994721763
26.6000011209398 92.5034310164122
26.6160011216998 82.7201255945052
26.6320011224598 62.3756061256304
26.6480011232197 53.7276802760189
26.6640011239797 52.4549332973382
26.6800011247396 44.8560083349386
26.6960011254996 29.2428947587224
26.7120011262596 18.2947942502467
26.7280011270195 11.8945599361533
26.7440011277795 9.27761950195882
26.7600011285394 7.57457980815617
26.7760011292994 6.52204041321889
26.7920011300594 5.85880514673224
26.8080011308193 5.21848582842427
26.8240011315793 4.41879781162964
26.8400011323392 3.88423311553137
26.8560011330992 3.39234633047448
26.8720011338592 2.99967135823412
26.8880011346191 2.85851143360428
26.9040011353791 2.4878904459416
26.920001136139 2.07734965618647
26.936001136899 1.64890478008798
26.952001137659 1.81350339492076
26.9680011384189 1.98179700317977
26.9840011391789 1.65991157444805
27.0000011399388 1.56246902145928
27.0160011406988 1.63906464018317
27.0320011414587 1.11290185277169
27.0480011422187 1.06815469310503
27.0640011429787 1.54973844472516
27.0800011437386 1.2833437309404
27.0960011444986 1.34925869639494
27.1120011452585 1.5138659126052
27.1280011460185 1.50588239310658
27.1440011467785 1.21653471223249
27.1600011475384 1.21461269417179
27.1760011482984 1.37262744638866
27.1920011490583 1.4775897407422
27.2080011498183 1.32735383577439
27.2240011505783 1.33220192702578
27.2400011513382 1.35015808251481
27.2560011520982 1.12194360356165
27.2720011528581 1.04983144613605
27.2880011536181 1.13177120706235
27.3040011543781 1.2320401269823
27.320001155138 1.48299856610185
27.336001155898 1.16857677260615
27.3520011566579 0.787882268681663
27.3680011574179 1.06643052521858
27.3840011581778 1.61766302098278
27.4000011589378 1.49458327547134
27.4160011596978 1.64720553291938
27.4320011604577 1.33389212372873
27.4480011612177 1.12229664138007
27.4640011619776 1.29282006853619
27.4800011627376 1.19229484864487
27.4960011634976 1.31520978170732
27.5120011642575 1.52185012490082
27.5280011650175 1.06069087331291
27.5440011657774 1.08399310552404
27.5600011665374 1.10155497395019
27.5760011672974 1.24803484956375
27.5920011680573 1.3336785457802
27.6080011688173 1.27325467368818
27.6240011695772 0.912005099984016
27.6400011703372 0.942668153156397
27.6560011710972 1.47327778925645
27.6720011718571 1.48151532051642
27.6880011726171 1.43697666025064
27.704001173377 1.14579058891691
27.720001174137 1.71077611897185
27.7360011748969 2.03444892728582
27.7520011756569 2.08737539586475
27.7680011764169 1.80570478725142
27.7840011771768 2.00926561934513
27.8000011779368 1.4503437206925
27.8160011786967 1.27268440910666
27.8320011794567 1.6530155215608
27.8480011802167 1.7347311883988
27.8640011809766 1.54353878943308
27.8800011817366 1.55166798899235
27.8960011824965 1.19741334523959
27.9120011832565 1.24492399956898
27.9280011840165 1.57092534063681
27.9440011847764 1.39134663093989
27.9600011855364 1.38611194230193
27.9760011862963 1.17987035371465
27.9920011870563 0.93765149209986
28.0080011878163 1.09943202176035
28.0240011885762 1.08289845539825
28.0400011893362 0.862899923396972
28.0560011900961 0.628363199004799
28.0720011908561 1.11222468352337
28.0880011916161 0.886117212924407
28.104001192376 0.883879768183981
28.120001193136 0.725634247164708
28.1360011938959 0.937375520937415
28.1520011946559 1.07826691631217
28.1680011954158 0.837698605674712
28.1840011961758 0.718092726700224
28.2000011969358 0.89067470447006
28.2160011976957 0.925679255604493
28.2320011984557 1.02418837861648
28.2480011992156 1.08186553088875
28.2640011999756 1.06953626773053
28.2800012007356 0.588563315973275
28.2960012014955 0.555221983673009
28.3120012022555 0.807580274112427
28.3280012030154 0.645367175845008
28.3440012037754 0.611884880257236
28.3600012045354 0.844698413909525
28.3760012052953 0.794874782229334
28.3920012060553 0.588893761851121
28.4080012068152 0.456776664435795
28.4240012075752 0.324555381450562
28.4400012083352 0.694326691000372
28.4560012090951 0.705815628019465
28.4720012098551 0.35494047007511
28.488001210615 0.541895533807027
28.504001211375 0.757092090175748
28.520001212135 0.691420152096114
28.5360012128949 0.581917851484212
28.5520012136549 0.531139980938327
28.5680012144148 0.569293763722905
28.5840012151748 0.817738926453014
28.6000012159347 0.728915504373097
28.6160012166947 0.597712542859041
28.6320012174547 0.748085399592616
28.6480012182146 0.716412936120641
28.6640012189746 0.972182559835037
28.6800012197345 0.632309699904839
28.6960012204945 0.815366870998984
28.7120012212545 0.36130913492817
28.7280012220144 0.28084642078935
28.7440012227744 0.58147155093171
28.7600012235343 0.895366725852826
28.7760012242943 0.59462133243685
28.7920012250543 0.496445676776226
28.8080012258142 0.348253968297068
28.8240012265742 0.719167101588309
28.8400012273341 0.783342270213714
28.8560012280941 0.811430905995442
28.8720012288541 0.820938261314354
28.888001229614 0.668246579515701
28.904001230374 0.41468874685094
28.9200012311339 0.603737267622876
28.9360012318939 0.883733382000489
28.9520012326538 0.552301395961834
28.9680012334138 0.643872424194658
28.9840012341738 0.704536658125678
29.0000012349337 0.317554776067027
29.0160012356937 0.579290848739348
29.0320012364536 0.732734211118975
29.0480012372136 1.05270031170837
29.0640012379736 0.82080991948809
29.0800012387335 0.701942772856136
29.0960012394935 0.777724003800128
29.1120012402534 0.831355342550149
29.1280012410134 0.72881437129356
29.1440012417734 0.936870603497067
29.1600012425333 0.978739952365824
29.1760012432933 0.873346636432801
29.1920012440532 0.789852589489945
29.2080012448132 0.607548726720051
29.2240012455732 0.667056030076894
29.2400012463331 0.462968364627968
29.2560012470931 0.768197011892564
29.272001247853 0.980163304426293
29.288001248613 0.535061394311202
29.304001249373 0.448855602793968
29.3200012501329 0.54429562192529
29.3360012508929 0.388262560589472
29.3520012516528 0.365483181700657
29.3680012524128 0.600777180341025
29.3840012531727 0.351502985645652
29.4000012539327 0.461697735442993
29.4160012546927 0.165569634875394
29.4320012554526 0.310914329720588
29.4480012562126 0.624153342527988
29.4640012569725 0.740899855026974
29.4800012577325 0.820241794223403
29.4960012584925 0.92249445284669
29.5120012592524 0.551835699177051
29.5280012600124 0.50687757051719
29.5440012607723 0.599446324959415
29.5600012615323 0.572939312534571
29.5760012622923 0.385072947519743
29.5920012630522 0.807057673640458
29.6080012638122 0.755160883843462
29.6240012645721 0.722147784474834
29.6400012653321 0.824522964926722
29.6560012660921 0.863844574404339
29.672001266852 0.742462197359079
29.688001267612 0.909608208566652
29.7040012683719 0.807933795481533
29.7200012691319 0.631693133179625
29.7360012698919 0.595365019819615
29.7520012706518 0.841242561257956
29.7680012714118 0.660889933269274
29.7840012721717 0.943741269097048
29.8000012729317 1.05754419036694
29.8160012736916 0.702952552003827
29.8320012744516 0.820039335969664
29.8480012752116 0.960587081779138
29.8640012759715 1.06940532417776
29.8800012767315 0.59250735187254
29.8960012774914 0.85921328498519
29.9120012782514 0.99264371065818
29.9280012790114 0.813059149806334
29.9440012797713 0.931034718039649
29.9600012805313 1.08146763195927
29.9760012812912 0.995397205426876
29.9920012820512 0.75661406871233
30.0080012828112 0.740654919550636
30.0240012835711 1.19560457763948
30.0400012843311 0.851267419013771
30.056001285091 0.870244440755898
30.072001285851 0.628315417702444
30.088001286611 0.453705462050519
30.1040012873709 0.766150775532595
30.1200012881309 0.446918487434218
30.1360012888908 0.577056282460433
30.1520012896508 0.774756217435046
30.1680012904107 0.679566647114179
30.1840012911707 0.754292783983915
30.2000012919307 0.902233412471119
30.2160012926906 0.494503529746567
30.2320012934506 0.595374855656609
30.2480012942105 0.857829749108046
30.2640012949705 0.829195402450783
30.2800012957305 0.704721049314174
30.2960012964904 0.454580710432593
30.3120012972504 0.73447530184325
30.3280012980103 0.754652810021109
30.3440012987703 0.894928721276925
30.3600012995303 0.739814818064069
30.3760013002902 0.713128244359987
30.3920013010502 0.741250161116255
30.4080013018101 0.564523556332858
30.4240013025701 0.70870228595663
30.4400013033301 0.945660554956436
30.45600130409 0.804163634566695
30.47200130485 0.611280538922845
30.4880013056099 0.982633033879993
30.5040013063699 0.661121267613959
30.5200013071299 0.556034675772525
30.5360013078898 0.26771619137601
30.5520013086498 0.356396545531585
30.5680013094097 0.7249173251738
30.5840013101697 0.307551077530594
30.6000013109296 0.575731014184957
30.6160013116896 0.698481706144718
30.6320013124496 0.671736875486989
30.6480013132095 0.647342719851718
30.6640013139695 0.619416345189278
30.6800013147294 0.765218191290574
30.6960013154894 0.88695166291444
30.7120013162494 0.515858922026449
30.7280013170093 0.283012739497654
30.7440013177693 0.273148131167205
30.7600013185292 0.259980312179677
30.7760013192892 0.44302265025987
30.7920013200492 0.838509409536175
30.8080013208091 0.907797762341325
30.8240013215691 0.578190553747689
30.840001322329 0.369052810226703
30.856001323089 0.72213972380887
30.872001323849 0.44803597598397
30.8880013246089 0.554182010460532
30.9040013253689 0.618105772937333
30.9200013261288 0.531775364249904
30.9360013268888 0.409470707068583
30.9520013276488 0.548773184617318
30.9680013284087 0.597254252950363
30.9840013291687 0.61321017348186
31.0000013299286 0.79423996593565
31.0160013306886 0.85186269384654
31.0320013314485 0.598407212399619
31.0480013322085 0.723223196336192
31.0640013329685 0.746268691948286
31.0800013337284 1.11583144324771
31.0960013344884 0.663949340117189
31.1120013352483 0.739851669177286
31.1280013360083 0.669664855907934
31.1440013367683 0.999439854214409
31.1600013375282 1.08157833388699
31.1760013382882 0.812886249023464
31.1920013390481 0.933241466816924
31.2080013398081 0.947697054982673
31.2240013405681 1.12855863404348
31.240001341328 1.14162786859773
31.256001342088 0.645759690192071
31.2720013428479 0.955294744965138
31.2880013436079 0.919458216118604
31.3040013443679 1.10556764048335
31.3200013451278 1.05841672455355
31.3360013458878 1.07793081096359
31.3520013466477 0.687945906211282
31.3680013474077 0.951227376168485
31.3840013481677 0.722251579000695
31.4000013489276 0.718609056825459
31.4160013496876 0.932222258283439
31.4320013504475 0.872125174693941
31.4480013512075 0.647980281713277
31.4640013519674 0.91525337344506
31.4800013527274 0.741666644064286
31.4960013534874 0.89165673158223
31.5120013542473 0.482968636933939
31.5280013550073 0.641652056008421
31.5440013557672 0.960300285644135
31.5600013565272 1.01392240372105
31.5760013572872 0.785770912504247
31.5920013580471 0.764321797370136
31.6080013588071 0.692295036740732
31.624001359567 0.484803340000901
31.640001360327 0.765396845891567
31.656001361087 0.428604144413171
31.6720013618469 0.283005520842995
31.6880013626069 0.538041794347407
31.7040013633668 0.720947501109533
31.7200013641268 0.589473308230082
31.7360013648868 0.397757103617642
31.7520013656467 0.340021794463864
31.7680013664067 0.542524128153755
31.7840013671666 0.405582344626453
31.8000013679266 0.408392153590508
31.8160013686865 0.646327574267509
31.8320013694465 0.925835508900143
31.8480013702065 0.561449756712661
31.8640013709664 0.888870700032729
31.8800013717264 0.951153438380211
31.8960013724863 0.65175873841567
31.9120013732463 1.01022679269011
31.9280013740063 0.909885838379124
31.9440013747662 0.797295188778118
31.9600013755262 0.490297873555577
31.9760013762861 0.652083473264168
31.9920013770461 1.131738562788
32.0080013778061 0.928268241924584
32.024001378566 0.725497763433099
32.040001379326 0.979623650861584
32.0560013800859 1.14737366649882
32.0720013808459 1.08676526064202
32.0880013816059 0.78485151960198
32.1040013823658 0.869665362174564
32.1200013831258 0.776606171287068
32.1360013838857 0.833685677115791
32.1520013846457 0.428462674932194
32.1680013854057 0.650610663910452
32.1840013861656 0.77167972512998
32.2000013869256 0.858750261278661
32.2160013876855 0.517952756190628
32.2320013884455 1.21314388696412
32.2480013892054 0.754415980268681
32.2640013899654 0.581983723801335
32.2800013907254 0.72405933636675
32.2960013914853 0.512401939609333
32.3120013922453 0.328254906075506
32.3280013930052 0.72587016412323
32.3440013937652 0.627617489512545
32.3600013945252 0.580836056438272
32.3760013952851 0.31793019300669
32.3920013960451 0.678710384968434
32.408001396805 0.547737559636293
32.424001397565 0.340386985032946
32.440001398325 0.25819332792025
32.4560013990849 0.270990872131627
32.4720013998449 0.522253442090567
32.4880014006048 0.730836329034584
32.5040014013648 0.685163390599572
32.5200014021248 0.588394915243661
32.5360014028847 0.876913662155198
32.5520014036447 0.685758234529775
32.5680014044046 0.893601915172161
32.5840014051646 0.780277136905087
32.6000014059246 0.739378929119091
32.6160014066845 1.01090340855817
32.6320014074445 1.22199099401094
32.6480014082044 0.762278377564553
32.6640014089644 0.533861942220515
32.6800014097243 0.648517076799593
32.6960014104843 0.427834463891631
32.7120014112443 0.443617931390023
32.7280014120042 0.691824970111362
32.7440014127642 0.67285110181401
32.7600014135241 0.289331583024794
32.7760014142841 0.547541740946942
32.7920014150441 0.883960305596287
32.808001415804 0.836429244174131
32.824001416564 0.737021857866408
32.8400014173239 0.82825349386736
32.8560014180839 0.706233487114311
32.8720014188439 0.524982760896549
32.8880014196038 0.667871422031392
32.9040014203638 0.765286864207433
32.9200014211237 0.807446251615684
32.9360014218837 0.652980271282372
32.9520014226437 0.766586059259148
32.9680014234036 0.652219410247134
32.9840014241636 0.4560074404753
33.0000014249235 0.536141188813586
33.0160014256835 0.587623463308505
33.0320014264435 0.675202829190313
33.0480014272034 0.618339475631037
33.0640014279634 0.49009078742185
33.0800014287233 0.422870435737493
33.0960014294833 0.457052905523625
33.1120014302432 0.598403132781707
33.1280014310032 0.828265738825213
33.1440014317632 0.49584726200447
33.1600014325231 0.564942107796437
33.1760014332831 0.745792121990069
33.192001434043 0.569904563110066
33.208001434803 0.673327921479119
33.224001435563 0.560201367444781
33.2400014363229 0.566387593988498
33.2560014370829 0.587028336938877
33.2720014378428 0.318706594746454
33.2880014386028 0.286760329260479
33.3040014393628 0.648242796707049
33.3200014401227 0.603191842320344
33.3360014408827 0.63315148224036
33.3520014416426 0.368812258747952
33.3680014424026 0.282927900064568
33.3840014431626 0.336909858993243
33.4000014439225 0.481266899007466
33.4160014446825 0.155901588371391
33.4320014454424 0.713555587582317
33.4480014462024 0.773987056341942
33.4640014469623 0.589030468440065
33.4800014477223 0.560668359349065
33.4960014484823 0.460940001475307
33.5120014492422 0.562070371398204
33.5280014500022 0.636342332644857
33.5440014507621 0.220928971749736
33.5600014515221 0.722370623292281
33.5760014522821 0.414751636402405
33.592001453042 0.624886538962653
33.608001453802 0.518266459829395
33.6240014545619 0.407494056920047
33.6400014553219 0.441684065445492
33.6560014560819 0.428457318704058
33.6720014568418 0.515102654235298
33.6880014576018 0.48164155284561
33.7040014583617 0.582904902518147
33.7200014591217 0.582664650220046
33.7360014598817 1.18421694291833
33.7520014606416 0.403255958605861
33.7680014614016 0.551240189154162
33.7840014621615 0.661626792801086
33.8000014629215 0.662656149302165
33.8160014636815 0.578649112772819
33.8320014644414 0.496464532490452
33.8480014652014 0.643381668253605
33.8640014659613 0.891188113332503
33.8800014667213 0.516479450248464
33.8960014674812 0.602682714450877
33.9120014682412 0.632928332048818
33.9280014690012 0.675600035600273
33.9440014697611 0.599166153669995
33.9600014705211 0.194858412195594
33.976001471281 0.517255479461656
33.992001472041 0.372631311798536
34.008001472801 0.649698700523237
34.0240014735609 0.507734854706525
34.0400014743209 0.666038936609172
34.0560014750808 0.538494137578645
34.0720014758408 0.319373316027238
34.0880014766008 0.77338700542582
34.1040014773607 0.574638706278527
34.1200014781207 0.203308492153646
34.1360014788806 0.338019867438875
34.1520014796406 0.724791441794961
34.1680014804006 0.798702402357476
34.1840014811605 0.796739644456587
34.2000014819205 0.470088015277772
34.2160014826804 0.621493610970478
34.2320014834404 0.764335913535808
34.2480014842004 0.778111319872027
34.2640014849603 0.750487832963323
34.2800014857203 0.703503244531806
34.2960014864802 0.570967343116221
34.3120014872402 0.821599672354282
34.3280014880001 0.917884240959689
34.3440014887601 0.903857821782189
34.3600014895201 0.888231856813239
34.37600149028 1.16400175193106
34.39200149104 1.1012916196937
34.4080014917999 1.05165535670552
34.4240014925599 1.10206648860247
34.4400014933199 1.02988554039831
34.4560014940798 1.27366112456064
34.4720014948398 1.55789866630232
34.4880014955997 1.714618012586
34.5040014963597 1.87007971924827
34.5200014971197 1.78465890188321
34.5360014978796 2.11409167476578
34.5520014986396 1.61439520741103
34.5680014993995 1.86440943680843
34.5840015001595 2.04379999577259
34.6000015009195 1.88135788914561
34.6160015016794 1.88322320575931
34.6320015024394 2.24474455209719
34.6480015031993 2.33097090878811
34.6640015039593 2.30847884604321
34.6800015047193 2.11098325344438
34.6960015054792 2.07554603518709
34.7120015062392 2.57945638100869
34.7280015069991 2.16088433131765
34.7440015077591 2.15147916860534
34.760001508519 2.48385897120039
34.776001509279 2.63079206512358
34.792001510039 2.78837589386811
34.8080015107989 3.29252954565063
34.8240015115589 3.14265507140255
34.8400015123188 3.4531713564961
34.8560015130788 3.42339821267472
34.8720015138388 3.23339971871932
34.8880015145987 3.79820875890253
34.9040015153587 3.95740235146724
34.9200015161186 4.16674845354627
34.9360015168786 4.03982991083738
34.9520015176386 3.89417277995272
34.9680015183985 3.93542755292938
34.9840015191585 3.97163237564189
35.0000015199184 3.66265382063661
35.0160015206784 3.62271094040977
35.0320015214384 3.74802080597456
35.0480015221983 3.78219389032181
35.0640015229583 3.04030423123266
35.0800015237182 3.4183673137516
35.0960015244782 3.04913746375727
35.1120015252381 3.03716916806279
35.1280015259981 2.88263150426718
35.1440015267581 2.37040562344873
35.160001527518 2.39445668656984
35.176001528278 2.45101078097352
35.1920015290379 2.41868360355416
35.2080015297979 2.23682454197118
35.2240015305579 2.46196689135926
35.2400015313178 2.57288555259035
35.2560015320778 2.19486566600442
35.2720015328377 1.97931232535819
35.2880015335977 1.81772105448858
35.3040015343577 1.86726297722768
35.3200015351176 2.28993985174566
35.3360015358776 2.13257489464173
35.3520015366375 1.80454420619607
35.3680015373975 2.08437137402037
35.3840015381575 2.1703254428509
35.4000015389174 1.67469818303559
35.4160015396774 2.14491423046127
35.4320015404373 2.11987718070636
35.4480015411973 1.70878050009762
35.4640015419573 1.59279852304422
35.4800015427172 2.29919315456577
35.4960015434772 2.16085781011604
35.5120015442371 2.03034910888198
35.5280015449971 1.82445663185545
35.544001545757 1.92851616302984
35.560001546517 1.61428078628311
35.576001547277 1.38626412508885
35.5920015480369 1.75828918797558
35.6080015487969 1.50107285051876
35.6240015495568 1.90543686189299
35.6400015503168 2.02788625554777
35.6560015510768 1.95374222727288
35.6720015518367 1.90726591895959
35.6880015525967 2.11927750506297
35.7040015533566 1.72997454103573
35.7200015541166 1.63409202094598
35.7360015548766 1.49283992474886
35.7520015556365 1.69743263413528
35.7680015563965 2.29120669970856
35.7840015571564 2.28870592668205
35.8000015579164 2.1078971379163
35.8160015586764 1.93080181280038
35.8320015594363 2.13879882985603
35.8480015601963 2.41314164656321
35.8640015609562 2.34359624534857
35.8800015617162 2.24816103648236
35.8960015624762 2.38160170191902
35.9120015632361 1.89156857910814
35.9280015639961 2.04550764555938
35.944001564756 1.96351155099637
35.960001565516 2.15684473343929
35.9760015662759 2.19211238556999
35.9920015670359 2.27974695424902
36.0080015677959 2.04069939180159
36.0240015685558 2.12490312852047
36.0400015693158 2.09672100358681
36.0560015700757 1.79211739610666
36.0720015708357 1.45805933471008
36.0880015715957 1.65434766323065
36.1040015723556 1.65959118655039
36.1200015731156 1.66790303381499
36.1360015738755 1.85335821811138
36.1520015746355 1.61039531810504
36.1680015753955 1.55418861663942
36.1840015761554 1.37883544953097
36.2000015769154 1.63322529152735
36.2160015776753 1.69905905954847
36.2320015784353 1.86922832547641
36.2480015791953 1.91633972580662
36.2640015799552 1.74272056574489
36.2800015807152 1.61925290986238
36.2960015814751 1.59584578738018
36.3120015822351 1.93068060789873
36.328001582995 1.94824515351818
36.344001583755 1.89610790329637
36.360001584515 2.03558396399809
36.3760015852749 2.24065337583433
36.3920015860349 2.4339947996222
36.4080015867948 2.43127464578792
36.4240015875548 2.85832914822671
36.4400015883148 3.44122226246195
36.4560015890747 4.31690455992417
36.4720015898347 5.46758087166088
36.4880015905946 6.36978229170424
36.5040015913546 6.80380235114408
36.5200015921146 6.18899654220685
36.5360015928745 5.03372983647788
36.5520015936345 4.35281870862372
36.5680015943944 4.35962206454324
36.5840015951544 4.60298546940939
36.6000015959144 4.76240201127531
36.6160015966743 3.84218284099407
36.6320015974343 3.17848229960576
36.6480015981942 2.57366842898857
36.6640015989542 2.50488374322669
36.6800015997142 2.04538717574883
36.6960016004741 1.9115558896641
36.7120016012341 1.90522487730444
36.728001601994 2.28446677196617
36.744001602754 1.65722390790394
36.7600016035139 1.65292463060673
36.7760016042739 1.62268724039732
36.7920016050339 1.83047470915925
36.8080016057938 1.93174228867747
36.8240016065538 1.49762658345495
36.8400016073137 1.40237802252028
36.8560016080737 1.81639718290539
36.8720016088337 1.18670191763881
36.8880016095936 1.21453850669548
36.9040016103536 1.85403985879936
36.9200016111135 1.79444926676141
36.9360016118735 1.32194665851971
36.9520016126335 1.41355171715629
36.9680016133934 1.46238481832049
36.9840016141534 1.0684446290848
37.0000016149133 1.27799023255395
37.0160016156733 1.09095326957714
37.0320016164333 1.00014153433919
37.0480016171932 1.17513501006625
37.0640016179532 1.35139923567421
37.0800016187131 1.63274565106417
37.0960016194731 1.3672912629895
37.1120016202331 1.10701553634539
37.128001620993 1.01686047768706
37.144001621753 1.06161757733882
37.1600016225129 1.21671441442264
37.1760016232729 0.852415533211635
37.1920016240328 0.97353247528033
37.2080016247928 0.923367031593784
37.2240016255528 0.89549785484529
37.2400016263127 0.954259910012257
37.2560016270727 1.1341035985803
37.2720016278326 1.24262564761864
37.2880016285926 1.24024329186947
37.3040016293526 1.05587387343169
37.3200016301125 1.32104770528149
37.3360016308725 1.1579380219351
37.3520016316324 1.30250095514926
37.3680016323924 1.55921419617217
37.3840016331524 1.39821628320427
37.4000016339123 1.23911031023608
37.4160016346723 1.36058787483558
37.4320016354322 1.03849132375376
37.4480016361922 0.930005489201505
37.4640016369522 1.62933699495153
37.4800016377121 1.64730065069291
37.4960016384721 1.47684056564274
37.512001639232 1.25718824494656
37.528001639992 1.29213890350458
37.544001640752 1.34993753890637
37.5600016415119 1.08160523270092
37.5760016422719 1.45123560947141
37.5920016430318 1.70813859808748
37.6080016437918 1.54911593805812
37.6240016445517 1.56769207085067
37.6400016453117 1.81902486382923
37.6560016460717 1.97448311536622
37.6720016468316 1.51171251449263
37.6880016475916 1.54793387997377
37.7040016483515 1.78988484969456
37.7200016491115 1.6131490953955
37.7360016498715 1.68511369394089
37.7520016506314 2.21063800759809
37.7680016513914 1.70831000360229
37.7840016521513 1.42271465330559
37.8000016529113 1.70236692003078
37.8160016536713 1.82736613717372
37.8320016544312 1.42031909268685
37.8480016551912 1.42879543420875
37.8640016559511 1.34453187487044
37.8800016567111 1.35191495963095
37.8960016574711 1.35113218952939
37.912001658231 1.61966824307151
37.928001658991 1.58090088003738
37.9440016597509 1.42222371546529
37.9600016605109 1.4248171602979
37.9760016612708 1.29553957631741
37.9920016620308 1.3384589797147
38.0080016627908 1.24092623929805
38.0240016635507 1.15587954053852
38.0400016643107 0.990247022968836
38.0560016650706 1.15868883147561
38.0720016658306 1.15671977268055
38.0880016665906 1.10250791791447
38.1040016673505 1.56679146836695
38.1200016681105 1.58330450405128
38.1360016688704 1.23844158497274
38.1520016696304 1.5410762938136
38.1680016703904 1.0640119582754
38.1840016711503 1.2014567023933
38.2000016719103 1.18816246834688
38.2160016726702 1.30368670733027
38.2320016734302 1.33304282641174
38.2480016741902 1.42133804250059
38.2640016749501 1.70798062301363
38.2800016757101 1.77935721030911
38.29600167647 1.43943430731228
38.31200167723 1.56326929322491
38.32800167799 2.17419083497187
38.3440016787499 1.92523471874816
38.3600016795099 1.75131248607477
38.3760016802698 1.9994852919538
38.3920016810298 1.71551263959898
38.4080016817897 1.89615158898287
38.4240016825497 1.62737875966058
38.4400016833097 2.18420537886842
38.4560016840696 1.9684142347487
38.4720016848296 1.92980734429969
38.4880016855895 1.74255781895623
38.5040016863495 1.98143036629688
38.5200016871095 1.78276308200724
38.5360016878694 1.55262747054593
38.5520016886294 1.50330407758731
38.5680016893893 1.50408271248477
38.5840016901493 1.60736123573802
38.6000016909093 1.61825545208671
38.6160016916692 1.50589370679593
38.6320016924292 1.39016409386209
38.6480016931891 1.44186515153148
38.6640016939491 1.34179307046767
38.6800016947091 1.30283000464409
38.696001695469 1.37198322321426
38.712001696229 1.37881531114611
38.7280016969889 1.39675988493386
38.7440016977489 1.38246281899508
38.7600016985089 1.01897905442893
38.7760016992688 1.3791403784197
38.7920017000288 1.21822786246827
38.8080017007887 1.40034696600885
38.8240017015487 1.0384009942867
38.8400017023086 1.17763959042957
38.8560017030686 0.991296128484602
38.8720017038286 0.523647001720803
38.8880017045885 0.725763851685158
38.9040017053485 0.777716505343869
38.9200017061084 0.872400654070645
38.9360017068684 1.11848841496165
38.9520017076284 1.035181308997
38.9680017083883 0.925337667407375
38.9840017091483 0.871770854379058
39.0000017099082 1.16009969338021
39.0160017106682 1.25489997021202
39.0320017114282 1.00496257099492
39.0480017121881 1.03779687689131
39.0640017129481 1.07402894598475
39.080001713708 1.27516082804046
39.096001714468 1.21659125464922
39.112001715228 1.40775148835312
39.1280017159879 0.898817256573326
39.1440017167479 0.770892159969555
39.1600017175078 1.24750657758063
39.1760017182678 0.977699944420383
39.1920017190278 1.04540567261749
39.2080017197877 1.0394902142678
39.2240017205477 1.23125147202619
39.2400017213076 1.49770677497728
39.2560017220676 1.49949795439335
39.2720017228275 1.46906463106395
39.2880017235875 1.33353459870905
39.3040017243475 1.43549385573118
39.3200017251074 1.34120000632984
39.3360017258674 1.89524995806527
39.3520017266273 2.5615646953022
39.3680017273873 2.87219281714893
39.3840017281473 3.47725642473786
39.4000017289072 4.98169772289971
39.4160017296672 5.61433955805112
39.4320017304271 5.86276949078589
39.4480017311871 4.2939943119117
39.4640017319471 3.17120465474421
39.480001732707 2.67685155796073
39.496001733467 2.47325148785535
39.5120017342269 3.39342311387038
39.5280017349869 3.66980093426757
39.5440017357469 2.80042256505553
39.5600017365068 2.15617418179836
39.5760017372668 1.28713352972374
39.5920017380267 0.9078579623603
39.6080017387867 0.920836289966714
39.6240017395466 0.619539503592332
39.6400017403066 0.655880148512075
39.6560017410666 0.715055113780123
39.6720017418265 0.830125863533839
39.6880017425865 0.714448869384525
39.7040017433464 0.320875843772945
39.7200017441064 0.737259256567286
39.7360017448664 0.772844380008529
39.7520017456263 0.805882272709151
39.7680017463863 0.59546368716622
39.7840017471462 0.599571000280382
39.8000017479062 0.533565190181934
39.8160017486662 0.278114383818673
39.8320017494261 0.693133640558853
39.8480017501861 0.670711194705912
39.864001750946 0.715326214665002
39.880001751706 0.427223172370594
39.896001752466 0.451546224933477
39.9120017532259 0.398153412670601
39.9280017539859 0.541503095068609
39.9440017547458 0.798930144673866
39.9600017555058 1.20050321681407
39.9760017562658 0.839697194082735
39.9920017570257 0.854048732866814
