'Id: "" Comment: "" Operator: "Lab Manager" Anode: "Cu" Scantype: "Locked Coupled" TimePerStep: "157.8624" 
3 2.35582096081468
3.01600000075996 2.00879654060399
3.03200000151992 1.98008204641635
3.04800000227988 1.77262481779249
3.06400000303984 1.20710686353778
3.0800000037998 1.10958407696683
3.09600000455976 0.962356409750967
3.11200000531971 0.416469072920819
3.12800000607967 1.0214410328388
3.14400000683963 0.843965533898949
3.16000000759959 0.696559914388374
3.17600000835955 0.427102812836971
3.19200000911951 0.410400256963442
3.20800000987947 0.591210006278232
3.22400001063943 0.932093990554826
3.24000001139939 0.357956755055419
3.25600001215935 0.802046571094625
3.27200001291931 1.00534870924898
3.28800001367927 1.01652687121107
3.30400001443923 0.597373531075903
3.32000001519918 0.130768326081135
3.33600001595914 0.937336664978076
3.3520000167191 0.842495497545638
3.36800001747906 0.80124977777724
3.38400001823902 0.42330786206826
3.40000001899898 0.240554199652152
3.41600001975894 0.187019701466713
3.4320000205189 0.546576451949623
3.44800002127886 0.420620344034539
3.46400002203882 0.725816302359505
3.48000002279878 0.863043141923544
3.49600002355874 0.632372488481483
3.5120000243187 0.831878627743567
3.52800002507865 0
3.54400002583861 0.572085152770153
3.56000002659857 0.472076920543547
3.57600002735853 0.643914459595344
3.59200002811849 1.0066384684979
3.60800002887845 0.403531781509063
3.62400002963841 0.207340266676329
3.64000003039837 0.411872728426367
3.65600003115833 0.934123725485108
3.67200003191829 0.555132700528127
3.68800003267825 0.587077084427314
3.70400003343821 1.14966881995031
3.72000003419816 0.468188693974277
3.73600003495812 0.089853982999589
3.75200003571808 0.696642741799899
3.76800003647804 0.601531912005655
3.784000037238 0.321959026830513
3.80000003799796 0.603124744889758
3.81600003875792 0.552210708380279
3.83200003951788 0.818023136107968
3.84800004027784 1.25834111571843
3.8640000410378 1.02634141474464
3.88000004179776 0.874353513567428
3.89600004255772 0.865663185056569
3.91200004331768 0.470901155270234
3.92800004407763 0.0250797548969999
3.94400004483759 0.36882844400801
3.96000004559755 0.682009927455155
3.97600004635751 0.452897916400353
3.99200004711747 0.364770811362142
4.00800004787743 0.708302887845164
4.02400004863739 0.750527244750156
4.04000004939735 0.307196517348025
4.05600005015731 0.828890284829637
4.07200005091727 0.524080565570255
4.08800005167723 0.292429197369469
4.10400005243719 0.57018552149054
4.12000005319715 0.816539336844841
4.1360000539571 0.864143435872951
4.15200005471706 0.603808972874944
4.16800005547702 0.515786075673297
4.18400005623698 0.511409719540513
4.20000005699694 0.955457810132145
4.2160000577569 0.408421201686952
4.23200005851686 0.378800247965859
4.24800005927682 0.730681129590575
4.26400006003678 0.0790638091559721
4.28000006079674 0.462671863690847
4.2960000615567 0.719557669912252
4.31200006231666 0.405629476515539
4.32800006307662 0.717496111799058
4.34400006383657 0.248106977048213
4.36000006459653 0.946476982614463
4.37600006535649 1.05668675229115
4.39200006611645 0.714278829360023
4.40800006687641 0.812141769398877
4.42400006763637 0.259302376143527
4.44000006839633 0.160073993469872
4.45600006915629 0.499498801068157
4.47200006991625 1.16206056204443
4.48800007067621 0.578204681938903
4.50400007143617 0.283466375814246
4.52000007219613 0.52294543580318
4.53600007295609 0.733134466277885
4.55200007371604 0.648092497336421
4.568000074476 0.475973881729342
4.58400007523596 0.966741228775543
4.60000007599592 1.00669939242
4.61600007675588 0.587067224602961
4.63200007751584 0.0437986666811945
4.6480000782758 0.211229742598029
4.66400007903576 0.588934384952449
4.68000007979572 0.860678295401311
4.69600008055568 0.197821622342012
4.71200008131564 0.466940702168856
4.7280000820756 1.03013058159892
4.74400008283556 0.722281366201265
4.76000008359551 0.797555149577434
4.77600008435547 0.559369265081468
4.79200008511543 0.830720600051617
4.80800008587539 0.881426034815195
4.82400008663535 0.889875685816889
4.84000008739531 0.929864778121726
4.85600008815527 1.24465192629858
4.87200008891523 1.31376938886648
4.88800008967519 1.49213261103548
4.90400009043515 1.39267524350538
4.92000009119511 1.12048748829794
4.93600009195507 1.58197886020627
4.95200009271502 1.43737467073753
4.96800009347498 1.03212171154378
4.98400009423494 1.91531562452072
5.0000000949949 1.49747375743871
5.01600009575486 1.0783024244693
5.03200009651482 1.35439293474704
5.04800009727478 1.15439591160591
5.06400009803474 0.985686355144331
5.0800000987947 1.70012661924842
5.09600009955466 1.37965646618166
5.11200010031462 1.4276270851175
5.12800010107458 1.43760767882574
5.14400010183454 1.40893296854102
5.16000010259449 1.48190268011535
5.17600010335445 1.71906523747119
5.19200010411441 2.00297358195022
5.20800010487437 1.49692695989647
5.22400010563433 1.78451203274124
5.24000010639429 1.74645864908432
5.25600010715425 1.89054061349513
5.27200010791421 1.91849617514814
5.28800010867417 1.91835371673399
5.30400010943413 2.18963524164472
5.32000011019409 2.41278255563949
5.33600011095405 2.11136140410131
5.35200011171401 1.84187861172429
5.36800011247396 2.08623510094466
5.38400011323392 2.58250354268075
5.40000011399388 2.38371365070325
5.41600011475384 2.27204026643539
5.4320001155138 2.58483092826086
5.44800011627376 2.39047007596554
5.46400011703372 2.68272875249459
5.48000011779368 2.58849127718358
5.49600011855364 3.27106888007934
5.5120001193136 2.68245034893577
5.52800012007356 2.5408159364451
5.54400012083352 2.92680623206261
5.56000012159348 2.92027334986492
5.57600012235343 2.92224773296356
5.59200012311339 3.50483207700953
5.60800012387335 3.20176371830282
5.62400012463331 2.69501985196198
5.64000012539327 3.0291170591169
5.65600012615323 3.29232140921705
5.67200012691319 3.43673325413657
5.68800012767315 3.51818074868137
5.70400012843311 3.381758136479
5.72000012919307 3.46851238269313
5.73600012995303 3.74246368593387
5.75200013071299 4.07762512256016
5.76800013147295 4.08237693450089
5.7840001322329 3.9810289462083
5.80000013299286 3.63578274993693
5.81600013375282 3.59117794845318
5.83200013451278 3.92805005931221
5.84800013527274 4.17489275795441
5.8640001360327 4.52184997824477
5.88000013679266 4.80198014268179
5.89600013755262 4.78634204912081
5.91200013831258 4.22476599994783
5.92800013907254 3.8831985320227
5.9440001398325 5.09713642514519
5.96000014059246 5.36784117664298
5.97600014135242 5.00435372929673
5.99200014211237 5.14373034282967
6.00800014287233 5.12234773745334
6.02400014363229 4.80808921825328
6.04000014439225 4.99475662746774
6.05600014515221 5.18843756674593
6.07200014591217 5.41034875831003
6.08800014667213 5.7440907527806
6.10400014743209 5.78739744330887
6.12000014819205 5.658672151057
6.13600014895201 5.75072863581636
6.15200014971197 6.14874992534114
6.16800015047192 6.73381832672451
6.18400015123188 6.65440658560479
6.20000015199184 7.23819560135252
6.2160001527518 7.3132210297264
6.23200015351176 6.85301516144293
6.24800015427172 6.47899821339327
6.26400015503168 5.66469013883641
6.28000015579164 5.36684245965914
6.2960001565516 5.264440363599
6.31200015731156 5.294441770139
6.32800015807152 5.4351028442552
6.34400015883148 5.26369640361227
6.36000015959144 5.73462469724576
6.37600016035139 4.8802804889246
6.39200016111135 4.97826810371371
6.40800016187131 4.85278565751312
6.42400016263127 4.86037716704625
6.44000016339123 4.21929148112052
6.45600016415119 4.32079200275805
6.47200016491115 4.62961734551939
6.48800016567111 4.26237288159113
6.50400016643107 4.38284203714162
6.52000016719103 4.39582995376513
6.53600016795099 4.6632010779967
6.55200016871095 4.3277415567239
6.56800016947091 4.69092079673661
6.58400017023086 4.52908644942345
6.60000017099082 4.0945213173133
6.61600017175078 4.50812377406676
6.63200017251074 4.43262478710869
6.6480001732707 4.27774290619012
6.66400017403066 4.10191349204316
6.68000017479062 4.09357839714717
6.69600017555058 4.49888419524461
6.71200017631054 4.02648294329222
6.7280001770705 3.82077584330783
6.74400017783046 4.0909396104704
6.76000017859042 4.27632408235537
6.77600017935038 3.73450554274616
6.79200018011033 3.37400018745008
6.80800018087029 3.65001912339083
6.82400018163025 3.59867921603256
6.84000018239021 3.59936001145655
6.85600018315017 3.82938033296427
6.87200018391013 3.80455509398994
6.88800018467009 3.49859579267654
6.90400018543005 3.46954006158076
6.92000018619001 3.77227744760259
6.93600018694997 3.52997498071395
6.95200018770993 3.21726523328204
6.96800018846989 3.13211247228449
6.98400018922985 2.94884027484922
7.0000001899898 3.00421912325435
7.01600019074976 3.48851126344077
7.03200019150972 3.43771581278826
7.04800019226968 3.69287717423238
7.06400019302964 3.65703842395595
7.0800001937896 3.03847885474252
7.09600019454956 3.73141887420179
7.11200019530952 4.15220418861274
7.12800019606948 3.39899345115779
7.14400019682944 2.86156626356328
7.1600001975894 2.79665273467133
7.17600019834936 2.81314275459688
7.19200019910931 3.03434094370463
7.20800019986927 3.28644193959426
7.22400020062923 3.43054177603684
7.24000020138919 3.14572409416062
7.25600020214915 2.96968507421766
7.27200020290911 2.89669094772173
7.28800020366907 3.09334940008398
7.30400020442903 3.10315336351745
7.32000020518899 3.01971927461637
7.33600020594895 3.39575930564876
7.35200020670891 2.82336010080699
7.36800020746887 2.85629755667903
7.38400020822883 2.95531152716657
7.40000020898878 2.70252767165526
7.41600020974874 2.49254722950502
7.4320002105087 2.34866787205003
7.44800021126866 2.65619594638897
7.46400021202862 2.71446475619801
7.48000021278858 2.82192402394569
7.49600021354854 2.70058157496996
7.5120002143085 2.61363273035733
7.52800021506846 2.64153306471749
7.54400021582842 2.67734922561237
7.56000021658838 2.3012937238123
7.57600021734834 2.31549895035495
7.5920002181083 2.85286922289364
7.60800021886825 2.19766642980687
7.62400021962821 2.10005530111023
7.64000022038817 2.75408274546672
7.65600022114813 2.4190071871222
7.67200022190809 2.15685506567668
7.68800022266805 2.35810274375368
7.70400022342801 2.44919393173122
7.72000022418797 2.16575852521031
7.73600022494793 2.12618530176007
7.75200022570789 2.19354089527204
7.76800022646785 1.84969716907906
7.78400022722781 1.94514951267138
7.80000022798777 1.88289127273207
7.81600022874772 2.18587668338889
7.83200022950768 1.94690844492439
7.84800023026764 1.55183843801253
7.8640002310276 2.22872587261995
7.88000023178756 2.27138459402451
7.89600023254752 2.31510508433304
7.91200023330748 2.1826865728467
7.92800023406744 1.95792355869816
7.9440002348274 2.40410018247412
7.96000023558736 2.42344841959457
7.97600023634732 1.77705812515799
7.99200023710728 1.63242004213503
8.00800023786724 1.54016354557712
8.0240002386272 2.21285271401134
8.04000023938715 2.14344125237143
8.05600024014711 2.02520506027321
8.07200024090707 1.99013339312107
8.08800024166703 1.44774407850951
8.10400024242699 1.70998332009952
8.12000024318695 2.14994316203596
8.13600024394691 1.57894894072458
8.15200024470687 1.55403544697671
8.16800024546683 1.68754750374015
8.18400024622679 1.42219147327177
8.20000024698675 1.71448713195819
8.21600024774671 1.75243578060655
8.23200024850667 1.02950502342147
8.24800024926662 0.954734249259246
8.26400025002658 1.62007110435886
8.28000025078654 1.51116696134647
8.2960002515465 1.750870361154
8.31200025230646 1.23534120338561
8.32800025306642 1.52117541786611
8.34400025382638 1.59517861364633
8.36000025458634 1.11880257186381
8.3760002553463 1.02939499524404
8.39200025610626 1.52920908846635
8.40800025686622 1.558395424975
8.42400025762618 1.3811477270073
8.44000025838614 1.69643511355819
8.45600025914609 1.79585901355289
8.47200025990605 1.15160166171816
8.48800026066601 1.55315888441468
8.50400026142597 1.80635180306412
8.52000026218593 1.76923954537995
8.53600026294589 1.67038637688963
8.55200026370585 2.18768027949095
8.56800026446581 2.1421739667917
8.58400026522577 2.1003491949241
8.60000026598573 1.94683215171764
8.61600026674569 2.29964346953668
8.63200026750565 2.44031268047507
8.6480002682656 2.42927451817529
8.66400026902556 2.45316940479543
8.68000026978552 2.82480665710964
8.69600027054548 3.2238996512591
8.71200027130544 3.12905878068061
8.7280002720654 3.66039910773435
8.74400027282536 4.79533744614068
8.76000027358532 6.05011358352073
8.77600027434528 7.44582253805143
8.79200027510524 8.63875622704382
8.8080002758652 9.70271786651039
8.82400027662516 11.2718041805518
8.84000027738512 11.1460181786596
8.85600027814507 8.84112040555813
8.87200027890503 6.78041028922379
8.88800027966499 4.70812381057757
8.90400028042495 3.02652265682987
8.92000028118491 2.46554212279338
8.93600028194487 2.34259476053249
8.95200028270483 2.10243989610768
8.96800028346479 1.42644274133759
8.98400028422475 0.841964916118643
9.00000028498471 0.947633316434549
9.01600028574467 1.5630459757214
9.03200028650463 1.18542376822511
9.04800028726459 0.712174652534145
9.06400028802454 1.14143028813583
9.0800002887845 1.24356713376256
9.09600028954446 0.941102776581422
9.11200029030442 1.25632862620179
9.12800029106438 0.786850643818481
9.14400029182434 0.68382702162342
9.1600002925843 0.656022632790725
9.17600029334426 0.698061783023649
9.19200029410422 0.891991730329011
9.20800029486418 1.05100489471342
9.22400029562414 0.738807998164198
9.24000029638409 0.295941522610214
9.25600029714405 0.442740487156769
9.27200029790401 0.671471060394275
9.28800029866397 0.148876612457226
9.30400029942393 0.447538408347841
9.32000030018389 0.429123525044774
9.33600030094385 0.348385362781347
9.35200030170381 0.597867085203832
9.36800030246377 0.493763690449473
9.38400030322373 0.597289654841283
9.40000030398369 0.432373701165311
9.41600030474365 0.288406827009288
9.43200030550361 0.298999082555227
9.44800030626356 0.493476807397808
9.46400030702352 0.598319503832075
9.48000030778348 0.781467805726665
9.49600030854344 0.732780944403729
9.5120003093034 0.719859916811204
9.52800031006336 0.197436030421651
9.54400031082332 0.323592950580551
9.56000031158328 0.709747325036131
9.57600031234324 0.832832833675823
9.5920003131032 0.600873079740479
9.60800031386316 0.513117942223618
9.62400031462312 0.586028266097829
9.64000031538307 0.0475356644401757
9.65600031614303 0.38095456276004
9.67200031690299 0.735166565630934
9.68800031766295 0.511015914641243
9.70400031842291 0.606331118739615
9.72000031918287 0.125355539692393
9.73600031994283 0.481575562780359
9.75200032070279 0.441082386050468
9.76800032146275 0.739069495913929
9.78400032222271 0.697492663906461
9.80000032298267 0.409260790550157
9.81600032374263 0.386118101169027
9.83200032450259 0.656907314142639
9.84800032526254 0.743925586151599
9.8640003260225 0.522251406439834
9.88000032678246 0.4064123300468
9.89600032754242 0.361587735090501
9.91200032830238 0.351461018815863
9.92800032906234 0.522865058500718
9.9440003298223 0.431422724441298
9.96000033058226 0.588406862396056
9.97600033134222 0.599866797425831
9.99200033210218 0.917852234420739
10.0080003328621 0.754165255663056
10.0240003336221 0.525314505106504
10.0400003343821 0.0943913309795228
10.056000335142 0.267355895758985
10.072000335902 0.610963035639102
10.0880003366619 0.651053590764764
10.1040003374219 0.458279292904527
10.1200003381819 0.480503799050876
10.1360003389418 0.636172163207318
10.1520003397018 0.744519231693586
10.1680003404617 0.759669021706683
10.1840003412217 0.492242945246634
10.2000003419816 0.707468321224569
10.2160003427416 0.833793534203179
10.2320003435016 0.956040843626623
10.2480003442615 0.469191184593893
10.2640003450215 0.181282690314385
10.2800003457814 0.502259727503915
10.2960003465414 0.566959468219773
10.3120003473014 0.476338318729269
10.3280003480613 0.501070925694549
10.3440003488213 0.19383743387217
10.3600003495812 0.436117190058305
10.3760003503412 0.574367404450165
10.3920003511012 0.803650732553081
10.4080003518611 0.719111802171854
10.4240003526211 0.378771858473117
10.440000353381 0.537342748574998
10.456000354141 0.458340192425874
10.472000354901 0.74928256555633
10.4880003556609 0.400479482899158
10.5040003564209 0.667588309049854
10.5200003571808 0.978667572684831
10.5360003579408 0.543177021691653
10.5520003587008 0.43851043696486
10.5680003594607 0.881021888980827
10.5840003602207 0.832280244307841
10.6000003609806 0.68204253779639
10.6160003617406 0.345323331175877
10.6320003625005 0.601758932472011
10.6480003632605 0.689243440232568
10.6640003640205 0.187434369540275
10.6800003647804 0.830156690391266
10.6960003655404 0.272869252961941
10.7120003663003 0.275540818930692
10.7280003670603 0.269972195883742
10.7440003678203 0.804747629629532
10.7600003685802 0.852915036337818
10.7760003693402 0.419857758263049
10.7920003701001 0.465801285812425
10.8080003708601 0.729167964629811
10.8240003716201 0.896800018459228
10.84000037238 1.08234010330119
10.85600037314 0.949352670151304
10.8720003738999 0.883685382708453
10.8880003746599 0.404994743905551
10.9040003754199 0.879941704169118
10.9200003761798 0.512031237322892
10.9360003769398 0.390697150054102
10.9520003776997 0.827535048054665
10.9680003784597 0.929910061515406
10.9840003792196 0.768447363239005
11.0000003799796 0.632490612069502
11.0160003807396 0.839847018244425
11.0320003814995 0.603044930541348
11.0480003822595 0.595264845845271
11.0640003830194 0.704835177249258
11.0800003837794 0.583281695636373
11.0960003845394 0.794488437601576
11.1120003852993 0.710768475416284
11.1280003860593 0.742024430946616
11.1440003868192 1.05516443097608
11.1600003875792 0.771699941107347
11.1760003883392 0.463261520641444
11.1920003890991 0.806629132414027
11.2080003898591 1.05187353524107
11.224000390619 0.695121157056676
11.240000391379 0.815084777997003
11.256000392139 1.01789916938356
11.2720003928989 0.768591866047894
11.2880003936589 1.31965010859053
11.3040003944188 1.2291617148591
11.3200003951788 0.592144287475293
11.3360003959388 0.677842965103945
11.3520003966987 0.738838266422965
11.3680003974587 0.96490233702057
11.3840003982186 0.764843834618349
11.4000003989786 0.984022291908168
11.4160003997385 0.961514165083988
11.4320004004985 1.02735388106794
11.4480004012585 0.830783389775082
11.4640004020184 1.27806294357247
11.4800004027784 1.42893050509089
11.4960004035383 1.35801777027325
11.5120004042983 1.13113013221277
11.5280004050583 1.41382525727086
11.5440004058182 1.9564593972226
11.5600004065782 2.44559967512888
11.5760004073381 2.75045759578342
11.5920004080981 3.40275183852934
11.6080004088581 3.16913257304817
11.624000409618 2.65492685839868
11.640000410378 2.20144026475967
11.6560004111379 1.59922991258366
11.6720004118979 1.28178682842098
11.6880004126579 1.56414317526633
11.7040004134178 1.49534927427365
11.7200004141778 1.62578307414783
11.7360004149377 1.87365053522355
11.7520004156977 1.96110945299424
11.7680004164577 2.20621700486833
11.7840004172176 2.02911493481031
11.8000004179776 2.02879224294342
11.8160004187375 1.73862870645516
11.8320004194975 2.09581420275322
11.8480004202574 2.01913396265934
11.8640004210174 2.29128195237724
11.8800004217774 2.51739417943401
11.8960004225373 2.65899232756954
11.9120004232973 2.79033074101014
11.9280004240572 2.64628555752251
11.9440004248172 2.82553393938067
11.9600004255772 3.29906437806438
11.9760004263371 3.14709152225682
11.9920004270971 3.22368296948238
12.008000427857 3.21673462352529
12.024000428617 3.28256809694215
12.040000429377 3.44734164304058
12.0560004301369 4.37327293182318
12.0720004308969 4.39418523333617
12.0880004316568 4.65655893199297
12.1040004324168 5.17956172183707
12.1200004331768 5.28991644890626
12.1360004339367 6.10283969498447
12.1520004346967 6.97161600271707
12.1680004354566 8.06274145404801
12.1840004362166 8.59627979142724
12.2000004369766 9.6640974855283
12.2160004377365 11.3369322191914
12.2320004384965 12.6637141170126
12.2480004392564 14.7015147593146
12.2640004400164 17.6818095250917
12.2800004407763 20.9084986280817
12.2960004415363 25.3983510363264
12.3120004422963 31.276755552092
12.3280004430562 33.221306725978
12.3440004438162 30.4561544692665
12.3600004445761 25.4836434463506
12.3760004453361 19.8045121722557
12.3920004460961 15.1083808120453
12.408000446856 12.0032569551866
12.424000447616 9.80703541519629
12.4400004483759 8.79421091346655
12.4560004491359 7.90591815980741
12.4720004498959 6.94456922320643
12.4880004506558 6.4293040372897
12.5040004514158 5.70386175963757
12.5200004521757 5.32485258932184
12.5360004529357 4.59026731019792
12.5520004536957 3.45762368073972
12.5680004544556 3.28794023979754
12.5840004552156 2.9810838922332
12.6000004559755 2.19055246832474
12.6160004567355 2.46975387914754
12.6320004574954 2.58442972102753
12.6480004582554 2.07087539173094
12.6640004590154 1.96395724637204
12.6800004597753 1.87056835384793
12.6960004605353 2.14423163833085
12.7120004612952 2.14023626576511
12.7280004620552 1.38691509192785
12.7440004628152 1.2481604256905
12.7600004635751 1.42227902371294
12.7760004643351 1.79115523529752
12.792000465095 1.44770970324574
12.808000465855 1.13316451713318
12.824000466615 1.27213223565561
12.8400004673749 1.26757614673521
12.8560004681349 0.844776278817001
12.8720004688948 1.11923562302931
12.8880004696548 1.10499481370753
12.9040004704148 0.733051210214517
12.9200004711747 0.70377398239944
12.9360004719347 0.956822581968716
12.9520004726946 1.14229454736521
12.9680004734546 0.86187067842142
12.9840004742146 0.775569789419281
13.0000004749745 1.26810302861751
13.0160004757345 0.789031332793124
13.0320004764944 0.802193729345751
13.0480004772544 0.719258980840412
13.0640004780143 0.486938958489969
13.0800004787743 0.736736483645284
13.0960004795343 0.547875916691639
13.1120004802942 0.98131038226474
13.1280004810542 0.926730256757166
13.1440004818141 0.84723511791619
13.1600004825741 0.588053165585984
13.1760004833341 0.827956403099801
13.192000484094 1.02794366835519
13.208000484854 0.813946981128337
13.2240004856139 0.59092538096267
13.2400004863739 0.699121425633344
13.2560004871339 0.984000474428436
13.2720004878938 0.981030788154795
13.2880004886538 1.20197363280606
13.3040004894137 0.807599882860842
13.3200004901737 0.842199110626424
13.3360004909337 0.758853201838654
13.3520004916936 0.555050351969877
13.3680004924536 0.806327365200559
13.3840004932135 0.869063890077536
13.4000004939735 0.917825093600699
13.4160004947335 0.654000464387723
13.4320004954934 0.329446932801622
13.4480004962534 0.722781829151186
13.4640004970133 0.94275974312237
13.4800004977733 0.713706174884431
13.4960004985332 0.308156896352806
13.5120004992932 0.303101127264416
13.5280005000532 0.484052839198982
13.5440005008131 0.607596376539888
13.5600005015731 0.389365185881148
13.576000502333 0.438517057778055
13.592000503093 0.744424586477999
13.608000503853 0.53655221613165
13.6240005046129 0.54513191841251
13.6400005053729 0.626143999124173
13.6560005061328 0.961168443445835
13.6720005068928 0.716742316777202
13.6880005076528 0.748589331677319
13.7040005084127 0.558948949653406
13.7200005091727 0.26976842189614
13.7360005099326 0.523552694062698
13.7520005106926 0.504068381813022
13.7680005114526 0.756457112437856
13.7840005122125 1.00638853614364
13.8000005129725 0.805491879244576
13.8160005137324 0.629662293017477
13.8320005144924 1.07107311896418
13.8480005152523 0.812521301118306
13.8640005160123 0.289989542220091
13.8800005167723 0.870087498318806
13.8960005175322 0.816037526576245
13.9120005182922 0.986305718165029
13.9280005190521 0.781910141200724
13.9440005198121 0.304799105454265
13.9600005205721 0.776649603206829
13.976000521332 1.01611656486301
13.992000522092 0.670762616780246
14.0080005228519 0.312449541148236
14.0240005236119 0.30148347403758
14.0400005243719 0.304831764393883
14.0560005251318 0.595510676900727
14.0720005258918 0.628325700174647
14.0880005266517 0.443918789282879
14.1040005274117 0.691682921668576
14.1200005281717 1.15449145303488
14.1360005289316 1.02516953986518
14.1520005296916 0.744008118500334
14.1680005304515 1.02040196332613
14.1840005312115 0.770298730826338
14.2000005319715 0.36981007626383
14.2160005327314 0.684986552308249
14.2320005334914 0.520690716495164
14.2480005342513 0.273896351102428
14.2640005350113 0.669365568988091
14.2800005357712 0.78686981322701
14.2960005365312 0.871832817635276
14.3120005372912 0.71078409952176
14.3280005380511 0.648601469080434
14.3440005388111 0.762781608769732
14.360000539571 0.592323684638073
14.376000540331 0.51498543746259
14.392000541091 0.676327521722271
14.4080005418509 0.560751470266892
14.4240005426109 0.582657818982417
14.4400005433708 0.851157525000033
14.4560005441308 0.739082676998196
14.4720005448908 0.619152909428845
14.4880005456507 0.503731459198887
14.5040005464107 0.58034165098716
14.5200005471706 0.694302945711405
14.5360005479306 0.89747136318881
14.5520005486906 0.927662483904589
14.5680005494505 0.851626018331773
14.5840005502105 0.741044799158468
14.6000005509704 1.12828581475627
14.6160005517304 0.839031504059134
14.6320005524904 0.637450980096608
14.6480005532503 0.39964121796206
14.6640005540103 0.00871117412970079
14.6800005547702 0.430215511483237
14.6960005555302 0.763525555278123
14.7120005562901 0.68572191133903
14.7280005570501 0.739597365892555
14.7440005578101 0.831255313110411
14.76000055857 0.610561960757144
14.77600055933 0.842514601881048
14.7920005600899 0.370231550054514
14.8080005608499 0.613274223870841
14.8240005616099 0.797272884944842
14.8400005623698 0.738339316054716
14.8560005631298 0.626907534117034
14.8720005638897 0.647459774450459
14.8880005646497 0.525582061937973
14.9040005654097 0.663252706256943
14.9200005661696 0.600214946646554
14.9360005669296 0.462843860749039
14.9520005676895 0.614022319126203
14.9680005684495 0.380712182102489
14.9840005692095 0.368676233915636
15.0000005699694 0.65732670423858
15.0160005707294 0.620220136236638
15.0320005714893 0.800305178954426
15.0480005722493 0.838639325709361
15.0640005730093 0.373989806257601
15.0800005737692 0.47796685831797
15.0960005745292 0.825449179383147
15.1120005752891 0.52093499770824
15.1280005760491 0.474054201153555
15.144000576809 0.710988068664637
15.160000577569 0.581483932551984
15.176000578329 0.532872160267647
15.1920005790889 0.618166225914903
15.2080005798489 0.918869217069084
15.2240005806088 0.873622306570651
15.2400005813688 0.64657778144567
15.2560005821288 0.739380721072978
15.2720005828887 0.742710557485376
15.2880005836487 0.960911559297719
15.3040005844086 0.857437575606848
15.3200005851686 0.564622112298402
15.3360005859286 0.454402002353296
15.3520005866885 0.733025779370683
15.3680005874485 0.648986838016587
15.3840005882084 0.734038068570165
15.4000005889684 0.771984062663066
15.4160005897284 0.720478315091912
15.4320005904883 0.782736548068012
15.4480005912483 0.767525952555195
15.4640005920082 1.18768953644781
15.4800005927682 0.94676876961281
15.4960005935281 0.631204863371838
15.5120005942881 0.771942187899782
15.5280005950481 1.2607119699502
15.544000595808 1.13353696956735
15.560000596568 0.57830115632024
15.5760005973279 0.415335206650068
15.5920005980879 0.526806436323678
15.6080005988479 0.210990230292593
15.6240005996078 0.489772697870141
15.6400006003678 0.713120873140696
15.6560006011277 0.175737342985395
15.6720006018877 0.35590380983739
15.6880006026477 0.690174285582087
15.7040006034076 0.919569989045641
15.7200006041676 0.872800301224737
15.7360006049275 0.363782640034481
15.7520006056875 0.452906111322223
15.7680006064475 0.702620067645228
15.7840006072074 0.475233349311191
15.8000006079674 0.558031684675738
15.8160006087273 0.495354570699156
15.8320006094873 0.553495534873264
15.8480006102473 1.02080756597592
15.8640006110072 0.803798204861513
15.8800006117672 0.621193426698698
15.8960006125271 0.687344951173843
15.9120006132871 0.53970444234697
15.928000614047 0.241141298428841
15.944000614807 0.414246661357412
15.960000615567 0.49383032961047
15.9760006163269 0.550691198810714
15.9920006170869 0.762551033670118
16.0080006178468 0.912929544606959
16.0240006186068 0.801944382331136
16.0400006193668 0.84631029598358
16.0560006201267 0.57019424898885
16.0720006208867 0.211585857687028
16.0880006216466 0.405844745408944
16.1040006224066 0.581464999877905
16.1200006231666 0.751041957744608
16.1360006239265 0.499992199881691
16.1520006246865 0.60320683031342
16.1680006254464 0.590160081665742
16.1840006262064 0.686062975730556
16.2000006269664 0.354286357681405
16.2160006277263 0.543173262401243
16.2320006284863 0.508920344788663
16.2480006292462 0.641822792097113
16.2640006300062 0.665867305683951
16.2800006307661 0.48877372887903
16.2960006315261 0.762584190007081
16.3120006322861 0.910323075247934
16.328000633046 0.849807664834797
16.344000633806 0.575498665758358
16.3600006345659 0.713494601263294
16.3760006353259 0.603038054829129
16.3920006360859 0.535909536388509
16.4080006368458 0.839081387149122
16.4240006376058 0.844740743104415
16.4400006383657 0.795021867278956
16.4560006391257 0.538117178515002
16.4720006398857 0.676659918884013
16.4880006406456 0.81373381034671
16.5040006414056 0.468938263810006
16.5200006421655 0.0979432183448843
16.5360006429255 0.33072393844758
16.5520006436855 1.13884635633713
16.5680006444454 0.891637867197497
16.5840006452054 0.602148694601466
16.6000006459653 0.801445150669178
16.6160006467253 0.929140617120481
16.6320006474853 0.834354000705634
16.6480006482452 0.558920831173179
16.6640006490052 0.198262766999049
16.6800006497651 0.386601497666977
16.6960006505251 0.267795324057714
16.712000651285 0.693496329188045
16.728000652045 0.775740368811727
16.744000652805 0.897003117452387
16.7600006535649 0.686086787939404
16.7760006543249 0.772547447694507
16.7920006550848 1.05025276288516
16.8080006558448 0.73997795898096
16.8240006566048 0.745537069727625
16.8400006573647 0.65838396328636
16.8560006581247 0.892825009206097
16.8720006588846 0.590400442641299
16.8880006596446 0.726652453813843
16.9040006604046 0.395072737501252
16.9200006611645 0.499750071893976
16.9360006619245 0.86168129849643
16.9520006626844 0.683982904131936
16.9680006634444 0.443769584144007
16.9840006642044 0.582130484360267
17.0000006649643 0.678837207769194
17.0160006657243 0.878257080993835
17.0320006664842 0.744737815340685
17.0480006672442 0.601594493074222
17.0640006680042 0.952207599355694
17.0800006687641 0.941705313914783
17.0960006695241 0.650399626522749
17.112000670284 0.619465824827397
17.128000671044 0.56687591135279
17.1440006718039 0.630775274732139
17.1600006725639 0.985409543697237
17.1760006733239 0.950226327965416
17.1920006740838 0.537031778325536
17.2080006748438 0.548785653509068
17.2240006756037 0.903723826738739
17.2400006763637 0.667461176764816
17.2560006771237 0.564329461011074
17.2720006778836 0.843285256020959
17.2880006786436 1.02720476663365
17.3040006794035 1.01758868146265
17.3200006801635 0.985890001389665
17.3360006809235 0.906051373214206
17.3520006816834 0.792655371013074
17.3680006824434 0.808922594949891
17.3840006832033 0.946922191624328
17.4000006839633 1.30816039791072
17.4160006847233 1.22277859550041
17.4320006854832 0.823096128198099
17.4480006862432 0.625991781918763
17.4640006870031 0.974435873353112
17.4800006877631 0.871252021370985
17.4960006885231 1.00413877325462
17.512000689283 1.317923690778
17.528000690043 1.29539156094476
17.5440006908029 1.29656668558133
17.5600006915629 1.45225582200947
17.5760006923228 1.74821574930756
17.5920006930828 1.63723171327273
17.6080006938428 1.54510979939912
17.6240006946027 1.88236405998387
17.6400006953627 1.5698611487641
17.6560006961226 1.69425754767391
17.6720006968826 2.14978633991003
17.6880006976426 2.71774047567437
17.7040006984025 2.84815478087166
17.7200006991625 3.19741817252698
17.7360006999224 3.63140268730812
17.7520007006824 3.39040177661537
17.7680007014424 2.93588391094914
17.7840007022023 2.67093411734017
17.8000007029623 2.20131144782635
17.8160007037222 1.67601448551876
17.8320007044822 1.71357169295942
17.8480007052422 1.41224572910356
17.8640007060021 1.24480730155267
17.8800007067621 1.30730623317105
17.896000707522 1.35202767132156
17.912000708282 1.45884728150658
17.9280007090419 1.15441987917837
17.9440007098019 1.10711239685924
17.9600007105619 0.70499255031136
17.9760007113218 0.686712376509982
17.9920007120818 1.2593159037387
18.0080007128417 1.19584193904925
18.0240007136017 1.41791465947742
18.0400007143617 0.980492274414283
18.0560007151216 0.900454239099041
18.0720007158816 1.4484946293336
18.0880007166415 1.11549065887274
18.1040007174015 1.11723677926885
18.1200007181615 1.15453478662742
18.1360007189214 1.2213831071905
18.1520007196814 1.21058942737289
18.1680007204413 1.10723545575959
18.1840007212013 0.820139240028674
18.2000007219613 0.817150656070645
18.2160007227212 0.723033924037775
18.2320007234812 0.615580026334152
18.2480007242411 0.437926337797212
18.2640007250011 0.792909382106927
18.2800007257611 1.1627225842417
18.296000726521 0.877884947805013
18.312000727281 1.10593775560704
18.3280007280409 1.05612849646695
18.3440007288009 1.42853026400789
18.3600007295608 1.42640228616282
18.3760007303208 1.29622548612472
18.3920007310808 0.696596103569162
18.4080007318407 0.491428273369365
18.4240007326007 0.669207565692192
18.4400007333606 0.413342713228552
18.4560007341206 0.620959293269419
18.4720007348806 0.877830153489215
18.4880007356405 0.908786969306314
18.5040007364005 1.19429627401141
18.5200007371604 1.2467994555129
18.5360007379204 1.05741864811167
18.5520007386804 1.00355114449562
18.5680007394403 1.19340876797171
18.5840007402003 1.1125163728934
18.6000007409602 0.676146992622385
18.6160007417202 0.748796099304927
18.6320007424802 0.840347976300606
18.6480007432401 1.28436619468086
18.6640007440001 1.27607272956243
18.68000074476 1.01233671633436
18.69600074552 0.939261168305432
18.71200074628 0.716674989901543
18.7280007470399 1.02646825216075
18.7440007477999 1.10370853910196
18.7600007485598 1.36308639636826
18.7760007493198 0.946844881368705
18.7920007500797 1.15504935962642
18.8080007508397 1.24739717136818
18.8240007515997 0.81995290532892
18.8400007523596 0.593476609177555
18.8560007531196 0.593715526287944
18.8720007538795 0.639223646172443
18.8880007546395 0.557320266437568
18.9040007553995 0.726277677470485
18.9200007561594 0.737136825195229
18.9360007569194 0.413745774418731
18.9520007576793 0.469734991576937
18.9680007584393 0.304990946964267
18.9840007591993 0.302397145190271
19.0000007599592 0.525382306593638
19.0160007607192 0.696954691840585
19.0320007614791 0.656784008513068
19.0480007622391 0.733425983062215
19.0640007629991 0.918795585381243
19.080000763759 0.644774317004174
19.096000764519 0.442308002996736
19.1120007652789 0.449135268051974
19.1280007660389 0.338657279453415
19.1440007667989 0.695320869008819
19.1600007675588 0.168830531771533
19.1760007683188 0.294984413144565
19.1920007690787 0.828980204294357
19.2080007698387 0.705829354040949
19.2240007705986 0.766598858371509
19.2400007713586 0.900745103042532
19.2560007721186 0.842958063495232
19.2720007728785 0.515011671408255
19.2880007736385 0.825725780995048
19.3040007743984 1.16296576372007
19.3200007751584 1.063714007454
19.3360007759184 0.814426719182839
19.3520007766783 0.819077919155083
19.3680007774383 0.734504518499875
19.3840007781982 1.10147435594422
19.4000007789582 1.00083428754764
19.4160007797182 1.14010796082477
19.4320007804781 1.34582646499565
19.4480007812381 1.26330229347064
19.464000781998 1.25401529369636
19.480000782758 1.22597681753083
19.496000783518 1.281533490261
19.5120007842779 1.09503425740003
19.5280007850379 1.40216613514164
19.5440007857978 1.56381979866394
19.5600007865578 1.35937732186717
19.5760007873177 1.84413934395044
19.5920007880777 2.04959210276066
19.6080007888377 2.13358235430084
19.6240007895976 2.50007590918658
19.6400007903576 2.63276810132606
19.6560007911175 2.87360970339378
19.6720007918775 3.21839722418913
19.6880007926375 3.38114557422576
19.7040007933974 3.67146483726721
19.7200007941574 4.04122038523652
19.7360007949173 4.29717774964453
19.7520007956773 4.27178077994574
19.7680007964373 4.27093770381396
19.7840007971972 4.39853165975872
19.8000007979572 4.54091174450378
19.8160007987171 4.87908014071864
19.8320007994771 5.15208440169025
19.8480008002371 5.10040876891848
19.864000800997 4.5025334633976
19.880000801757 4.88916652428452
19.8960008025169 4.849814214585
19.9120008032769 4.45091525772712
19.9280008040369 4.58015191894335
19.9440008047968 4.21522353460533
19.9600008055568 3.91972314375706
19.9760008063167 4.04581476855544
19.9920008070767 3.69019911722331
20.0080008078366 3.2853788667127
20.0240008085966 3.24944780888217
20.0400008093566 3.2428542693385
20.0560008101165 3.52985108269134
20.0720008108765 3.50206578790185
20.0880008116364 3.44860151246671
20.1040008123964 3.49098781428772
20.1200008131564 3.55574073153933
20.1360008139163 3.41696252061538
20.1520008146763 3.1234652325293
20.1680008154362 3.12427026802777
20.1840008161962 3.10659479001002
20.2000008169562 2.99172123967925
20.2160008177161 3.57632470158189
20.2320008184761 3.34350100700504
20.248000819236 3.26229285124379
20.264000819996 3.26922119461765
20.280000820756 3.12273076869922
20.2960008215159 3.10850708832723
20.3120008222759 2.9294024282323
20.3280008230358 2.78383214697481
20.3440008237958 2.23285872060259
20.3600008245558 2.49395129732585
20.3760008253157 2.92531073931353
20.3920008260757 2.82704784738502
20.4080008268356 2.61915787099366
20.4240008275956 2.88568363750941
20.4400008283555 2.57729159338459
20.4560008291155 2.72278276165402
20.4720008298755 2.71207132514676
20.4880008306354 2.99094720563475
20.5040008313954 2.99984241327337
20.5200008321553 2.52811359654872
20.5360008329153 3.00858929748399
20.5520008336753 3.26626044857822
20.5680008344352 2.69533248952134
20.5840008351952 2.3689693933874
20.6000008359551 2.85313997097288
20.6160008367151 2.7496877540051
20.6320008374751 2.66855151126822
20.648000838235 2.98065888740219
20.664000838995 3.06206869664335
20.6800008397549 3.60227743885356
20.6960008405149 3.94997396428912
20.7120008412749 4.45244573501256
20.7280008420348 5.29470301472922
20.7440008427948 6.63315241905531
20.7600008435547 9.03399738777632
20.7760008443147 11.3861389420178
20.7920008450747 16.4125354995356
20.8080008458346 22.1014475535599
20.8240008465946 25.3871873099623
20.8400008473545 20.9297199955041
20.8560008481145 16.5243185671923
20.8720008488744 14.7079800318208
20.8880008496344 11.6476884502407
20.9040008503944 7.29785974716768
20.9200008511543 5.03173942592982
20.9360008519143 4.75145723202364
20.9520008526742 3.83652952888477
20.9680008534342 3.63438587872418
20.9840008541942 3.71362051208802
21.0000008549541 3.08776780165904
21.0160008557141 2.71408430277727
21.032000856474 2.52979649249207
21.048000857234 2.84721521287161
21.064000857994 2.61912980463772
21.0800008587539 2.70293996204154
21.0960008595139 2.3391925458122
21.1120008602738 2.78804174338163
21.1280008610338 3.01369048574669
21.1440008617938 2.96105263036472
21.1600008625537 2.63689465846159
21.1760008633137 2.80843150340288
21.1920008640736 2.66750416049528
21.2080008648336 2.49869750243645
21.2240008655935 2.7300885833338
21.2400008663535 2.7468060736069
21.2560008671135 2.62284231179706
21.2720008678734 2.43443348131795
21.2880008686334 2.27358962523042
21.3040008693933 2.47875062773264
21.3200008701533 2.11970009383087
21.3360008709133 2.32110469675789
21.3520008716732 2.60062325542999
21.3680008724332 2.27593724583837
21.3840008731931 1.99423177485457
21.4000008739531 2.20098686195555
21.4160008747131 2.3693198463849
21.432000875473 2.12096831175622
21.448000876233 1.70493342801428
21.4640008769929 1.73686785918165
21.4800008777529 2.17259915662638
21.4960008785129 1.91117861529735
21.5120008792728 2.07661140455642
21.5280008800328 2.10854542100215
21.5440008807927 1.85130016254677
21.5600008815527 2.16526567256892
21.5760008823127 1.9841558728922
21.5920008830726 1.61822926079293
21.6080008838326 1.86388863681602
21.6240008845925 1.92950165521839
21.6400008853525 1.92825913507956
21.6560008861124 2.08401019808769
21.6720008868724 2.04439058716085
21.6880008876324 1.63587456214901
21.7040008883923 1.65277913027997
21.7200008891523 1.94352656239684
21.7360008899122 1.79377903241397
21.7520008906722 1.21907159324028
21.7680008914322 1.15262442906323
21.7840008921921 1.60006131386529
21.8000008929521 1.26564292501859
21.816000893712 1.3443006696727
21.832000894472 1.53664840637095
21.848000895232 1.37428419483537
21.8640008959919 1.699065357014
21.8800008967519 1.32756508707358
21.8960008975118 1.07535178380064
21.9120008982718 1.26543954775105
21.9280008990318 1.43449670515888
21.9440008997917 1.57253009008051
21.9600009005517 1.48333644422702
21.9760009013116 1.49772604155105
21.9920009020716 1.76143171772988
22.0080009028316 1.32126884471987
22.0240009035915 1.43283781860601
22.0400009043515 1.22761466001827
22.0560009051114 1.17881707830464
22.0720009058714 1.51516549511279
22.0880009066313 1.07425987066652
22.1040009073913 1.40024197347844
22.1200009081513 1.1671631035352
22.1360009089112 1.11701711071087
22.1520009096712 1.07524318565803
22.1680009104311 0.882078509289427
22.1840009111911 1.13052428146922
22.2000009119511 0.931953548020454
22.216000912711 1.13645799934521
22.232000913471 1.33092512423514
22.2480009142309 0.986571998366665
22.2640009149909 0.870592382885729
22.2800009157509 1.25328628872858
22.2960009165108 1.32527016779799
22.3120009172708 0.950649888634405
22.3280009180307 1.1897762898922
22.3440009187907 1.18053540132107
22.3600009195507 0.864912948582843
22.3760009203106 0.75564875681307
22.3920009210706 0.728162148438591
22.4080009218305 1.18284716338609
22.4240009225905 1.23488708923641
22.4400009233504 1.07418978507177
22.4560009241104 1.0136990247483
22.4720009248704 0.975241060820586
22.4880009256303 0.714072608254272
22.5040009263903 0.693272828976799
22.5200009271502 1.13489807079309
22.5360009279102 0.91614693897883
22.5520009286702 1.19334135683759
22.5680009294301 0.965825289094921
22.5840009301901 0.616692267180646
22.60000093095 0.800130892578549
22.61600093171 0.914300986465248
22.63200093247 1.26376933393187
22.6480009332299 1.0474244989313
22.6640009339899 0.92745289333387
22.6800009347498 0.846035803529638
22.6960009355098 0.989811453585865
22.7120009362698 0.993238646404944
22.7280009370297 0.913198814688236
22.7440009377897 0.657392822608411
22.7600009385496 0.857378793471245
22.7760009393096 0.862967534654858
22.7920009400696 0.952035455946971
22.8080009408295 1.16632088169276
22.8240009415895 0.975445902365019
22.8400009423494 0.805447588394397
22.8560009431094 0.864333328294396
22.8720009438693 1.20546534274867
22.8880009446293 1.06347091502514
22.9040009453893 0.713223552580338
22.9200009461492 0.444557790538751
22.9360009469092 0.864396415769857
22.9520009476691 1.30027468754978
22.9680009484291 1.0258543238707
22.9840009491891 1.22719370493022
23.000000949949 1.3047285058028
23.016000950709 1.01445674715751
23.0320009514689 0.896535830482874
23.0480009522289 1.13824245025824
23.0640009529889 1.09138079651143
23.0800009537488 1.10866490106776
23.0960009545088 1.06971378552056
23.1120009552687 0.663063176303636
23.1280009560287 1.02892471226444
23.1440009567887 1.08417850172945
23.1600009575486 1.15251406506267
23.1760009583086 0.77429639190243
23.1920009590685 0.448784088479895
23.2080009598285 0.539683192335806
23.2240009605885 0.561234856478944
23.2400009613484 0.64966300160123
23.2560009621084 0.756908733356072
23.2720009628683 0.612106086869463
23.2880009636283 0.701209095005785
23.3040009643882 0.913481491987531
23.3200009651482 0.953671457484921
23.3360009659082 0.561388892162469
23.3520009666681 0.613108119051427
23.3680009674281 0.976305405674955
23.384000968188 0.895526116098473
23.400000968948 0.873903765976571
23.416000969708 0.71114123982905
23.4320009704679 1.02828456600198
23.4480009712279 1.24747741341196
23.4640009719878 0.586765538963888
23.4800009727478 0.552064685625899
23.4960009735078 0.667266713132978
23.5120009742677 0.8530155110944
23.5280009750277 0.805298045044514
23.5440009757876 0.794449544351194
23.5600009765476 0.601238023825683
23.5760009773076 0.811896075298893
23.5920009780675 0.858956234167561
23.6080009788275 0.500554353630482
23.6240009795874 0.625617791608061
23.6400009803474 1.05488462663827
23.6560009811074 0.673547505287067
23.6720009818673 0.882647891193624
23.6880009826273 0.722555700921134
23.7040009833872 0.560548305323744
23.7200009841472 1.05076633136191
23.7360009849071 0.744821920128835
23.7520009856671 0.782244000489179
23.7680009864271 0.811528599574704
23.784000987187 0.570894042613402
23.800000987947 1.07479120160215
23.8160009887069 1.12253336133034
23.8320009894669 1.08745275924822
23.8480009902269 1.57388816662435
23.8640009909868 1.4034925991172
23.8800009917468 0.801696433982094
23.8960009925067 0.798609545576074
23.9120009932667 0.813573637843467
23.9280009940267 0.605237473708943
23.9440009947866 0.65774922293472
23.9600009955466 0.880741183789384
23.9760009963065 1.42976167440836
23.9920009970665 1.18412219819739
24.0080009978265 1.0119776549472
24.0240009985864 1.15824200573797
24.0400009993464 1.06751837627944
24.0560010001063 1.26503749609959
24.0720010008663 1.214799372601
24.0880010016262 1.32168842107296
24.1040010023862 1.31684937850594
24.1200010031462 1.04782038568249
24.1360010039061 0.983051281929862
24.1520010046661 1.22920248182945
24.168001005426 1.36614327053512
24.184001006186 1.36773135087084
24.200001006946 1.35727303891017
24.2160010077059 1.17470802746785
24.2320010084659 1.06003830822464
24.2480010092258 1.27952609260528
24.2640010099858 1.57971938291413
24.2800010107458 1.43835644833247
24.2960010115057 0.982852086273821
24.3120010122657 1.45567693646353
24.3280010130256 1.46742285705432
24.3440010137856 1.2919791561799
24.3600010145456 1.3657620022067
24.3760010153055 1.69983715572174
24.3920010160655 1.64091203791981
24.4080010168254 1.64754060518325
24.4240010175854 1.46148790982706
24.4400010183454 1.42166032622471
24.4560010191053 1.58788329014672
24.4720010198653 1.92419156922133
24.4880010206252 1.86712070345716
24.5040010213852 2.15616525843748
24.5200010221451 2.00983451882953
24.5360010229051 2.17005009361875
24.5520010236651 2.20456254415069
24.568001024425 2.07488357486761
24.584001025185 2.47481159512086
24.6000010259449 2.39002542958169
24.6160010267049 2.25549713595709
24.6320010274649 2.70018712463926
24.6480010282248 3.3924373995934
24.6640010289848 3.1968042641708
24.6800010297447 3.22818779215564
24.6960010305047 4.00059377472984
24.7120010312647 4.89130062699978
24.7280010320246 5.70415677110778
24.7440010327846 6.35170937175629
24.7600010335445 7.27760778338083
24.7760010343045 8.57169419454874
24.7920010350645 10.8628974074299
24.8080010358244 13.3304466043279
24.8240010365844 14.5338746000417
24.8400010373443 14.4042902731088
24.8560010381043 14.1788029497143
24.8720010388643 13.369385587577
24.8880010396242 11.9877731831678
24.9040010403842 11.0783789176816
24.9200010411441 9.66141952919891
24.9360010419041 7.48658970312593
24.952001042664 6.51224156059111
24.968001043424 5.92635766165595
24.984001044184 5.78286894681168
25.0000010449439 5.39211192846807
25.0160010457039 4.69589325586095
25.0320010464638 4.51069115321439
25.0480010472238 4.27014784730616
25.0640010479838 4.23727083749909
25.0800010487437 4.01304922566616
25.0960010495037 3.91059010161053
25.1120010502636 3.49764354489806
25.1280010510236 3.31477395957576
25.1440010517836 3.5404952520246
25.1600010525435 3.46540627552711
25.1760010533035 3.19809545476698
25.1920010540634 3.16176809346845
25.2080010548234 3.14984766463885
25.2240010555834 2.98637846205191
25.2400010563433 2.91876700695703
25.2560010571033 3.27613937618542
25.2720010578632 3.5193419696047
25.2880010586232 3.56127763223515
25.3040010593832 3.19782992549267
25.3200010601431 2.96633619825842
25.3360010609031 2.7736141066711
25.352001061663 2.92080192203771
25.368001062423 2.51899490491934
25.3840010631829 2.20753091474661
25.4000010639429 1.99246502608439
25.4160010647029 2.05658814098254
25.4320010654628 1.9793346738077
25.4480010662228 1.77479605213231
25.4640010669827 1.64953526586714
25.4800010677427 1.95966938776518
25.4960010685027 2.29015541272081
25.5120010692626 2.24067107050558
25.5280010700226 2.0293992825088
25.5440010707825 2.30548195540575
25.5600010715425 1.62488940391416
25.5760010723025 1.59509216245613
25.5920010730624 2.09589559633992
25.6080010738224 1.96320877958382
25.6240010745823 1.75148015863283
25.6400010753423 1.40071007896481
25.6560010761023 1.59703902204859
25.6720010768622 1.61898968020455
25.6880010776222 1.98202146615282
25.7040010783821 1.76363125314167
25.7200010791421 1.71685714417194
25.736001079902 1.96038508359788
25.752001080662 1.70289085126616
25.768001081422 1.76297437771669
25.7840010821819 1.48910001071275
25.8000010829419 1.56318017141798
25.8160010837018 2.00157292364735
25.8320010844618 1.80692672918299
25.8480010852218 2.0110880201035
25.8640010859817 1.97244485311519
25.8800010867417 2.07016277265936
25.8960010875016 1.93355495249661
25.9120010882616 1.74703166485428
25.9280010890216 1.77761350052611
25.9440010897815 2.41533392409195
25.9600010905415 2.28506866618044
25.9760010913014 2.21097655946371
25.9920010920614 2.09747670011617
26.0080010928214 2.22760065763014
26.0240010935813 2.01065766780094
26.0400010943413 1.97013774781132
26.0560010951012 1.76687569067063
26.0720010958612 1.92929175440059
26.0880010966212 1.93313086182289
26.1040010973811 1.84308877123838
26.1200010981411 2.00881017916585
26.136001098901 1.881309755411
26.152001099661 1.73087966281381
26.1680011004209 1.95686878871227
26.1840011011809 2.00711113837444
26.2000011019409 2.07698788915649
26.2160011027008 2.05854406286648
26.2320011034608 2.39555430209465
26.2480011042207 2.33446643664067
26.2640011049807 2.58572626338856
26.2800011057407 2.60599336932353
26.2960011065006 3.28879019769448
26.3120011072606 3.63566875138643
26.3280011080205 3.37271929590501
26.3440011087805 3.57338983114595
26.3600011095405 3.83245871293943
26.3760011103004 3.96790070752745
26.3920011110604 4.36556211609432
26.4080011118203 4.78130514143421
26.4240011125803 5.70713960553021
26.4400011133403 6.38193317925306
26.4560011141002 7.45767574286053
26.4720011148602 9.37772233012532
26.4880011156201 11.1693685625123
26.5040011163801 13.5671194924404
26.5200011171401 18.4400092305409
26.5360011179 26.8531333288628
26.55200111866 39.1055340041193
26.5680011194199 57.8981638858238
26.5840011201799 81.6366823945493
26.6000011209398 97.4869283915658
26.6160011216998 83.5078884826686
26.6320011224598 60.6410567187031
26.6480011232197 55.2927080150164
26.6640011239797 56.2253604530808
26.6800011247396 47.1743155808538
26.6960011254996 31.4613039000468
26.7120011262596 19.3273631094561
26.7280011270195 14.5164273971294
26.7440011277795 12.7574547923951
26.7600011285394 10.9823852052974
26.7760011292994 9.4640254608578
26.7920011300594 8.53546397854103
26.8080011308193 7.70385867158732
26.8240011315793 6.55121252267729
26.8400011323392 5.87225947965295
26.8560011330992 5.28943697826383
26.8720011338592 4.84043438828503
26.8880011346191 3.98596045656939
26.9040011353791 3.54360191592799
26.920001136139 3.42070757717648
26.936001136899 2.82271923555968
26.952001137659 2.45673728516058
26.9680011384189 2.793220578596
26.9840011391789 2.66301860431812
27.0000011399388 2.50835681935096
27.0160011406988 2.30954492432721
27.0320011414587 2.48005665302715
27.0480011422187 2.28312890558622
27.0640011429787 1.74624171702404
27.0800011437386 1.74532343953219
27.0960011444986 2.08012181635577
27.1120011452585 2.15795391211334
27.1280011460185 1.9659708107377
27.1440011467785 1.48504537940936
27.1600011475384 1.65569542345774
27.1760011482984 1.96272891348878
27.1920011490583 1.53814917961958
27.2080011498183 1.60657229474955
27.2240011505783 1.75362000915867
27.2400011513382 1.69700687413149
27.2560011520982 1.65019823331297
27.2720011528581 1.64140268233175
27.2880011536181 2.07469093090803
27.3040011543781 1.69216680262259
27.320001155138 1.67735864848874
27.336001155898 1.41788797593501
27.3520011566579 1.34449572335274
27.3680011574179 1.62106952904026
27.3840011581778 1.64070369166346
27.4000011589378 1.85488284525988
27.4160011596978 1.47281529335095
27.4320011604577 1.84149793579905
27.4480011612177 2.14233798211276
27.4640011619776 2.13506663657239
27.4800011627376 2.06083658562987
27.4960011634976 1.76058864039885
27.5120011642575 1.5367598043362
27.5280011650175 1.51242107906892
27.5440011657774 1.3613139969215
27.5600011665374 1.06231516996701
27.5760011672974 1.51939433478789
27.5920011680573 1.65037053645993
27.6080011688173 1.95881349211076
27.6240011695772 1.90923012962228
27.6400011703372 1.77622777034974
27.6560011710972 1.66657887472987
27.6720011718571 1.79120557076873
27.6880011726171 1.9216138608618
27.704001173377 2.00218708007952
27.720001174137 2.10135609439449
27.7360011748969 1.87635809789499
27.7520011756569 1.569669748885
27.7680011764169 1.8815525112225
27.7840011771768 1.78164918470079
27.8000011779368 1.64296409319542
27.8160011786967 1.65278497473733
27.8320011794567 1.6800012641957
27.8480011802167 2.10970541095714
27.8640011809766 3.14456450158861
27.8800011817366 3.32456152304316
27.8960011824965 3.01480766035775
27.9120011832565 2.69323322269101
27.9280011840165 2.5756973944156
27.9440011847764 2.45592033472805
27.9600011855364 2.1006477312035
27.9760011862963 2.05336439543459
27.9920011870563 1.48790097272902
28.0080011878163 1.32951726410019
28.0240011885762 1.18970462906278
28.0400011893362 0.833245598910606
28.0560011900961 1.11634782825491
28.0720011908561 1.28655235675705
28.0880011916161 1.45240267485046
28.104001192376 1.07180910392908
28.120001193136 1.11596980074546
28.1360011938959 1.06556829905247
28.1520011946559 1.1650692780796
28.1680011954158 1.09054303064274
28.1840011961758 1.23670580634644
28.2000011969358 1.40160123352629
28.2160011976957 1.33306866844216
28.2320011984557 1.27326760858362
28.2480011992156 0.975599432730936
28.2640011999756 0.805471727508168
28.2800012007356 0.859874220202652
28.2960012014955 0.783639001475688
28.3120012022555 0.728228017251464
28.3280012030154 0.544859311193159
28.3440012037754 0.354611306446976
28.3600012045354 1.18994126949234
28.3760012052953 1.12055122970607
28.3920012060553 0.952564137758969
28.4080012068152 0.887581863838392
28.4240012075752 0.899033412297621
28.4400012083352 0.894159679433338
28.4560012090951 0.690738930108902
28.4720012098551 0.78276458176831
28.488001210615 1.19164756014485
28.504001211375 1.1385761705567
28.520001212135 0.992700787460187
28.5360012128949 0.970348140483617
28.5520012136549 0.939456247462463
28.5680012144148 0.747567515350209
28.5840012151748 0.727695770240606
28.6000012159347 0.45285576504234
28.6160012166947 0.907698965827899
28.6320012174547 1.09665784704986
28.6480012182146 1.09339148177977
28.6640012189746 0.916012545076011
28.6800012197345 0.564565585184354
28.6960012204945 0.834686915195181
28.7120012212545 1.03231713923237
28.7280012220144 0.997009325969211
28.7440012227744 0.827552990422353
28.7600012235343 0.881701103900028
28.7760012242943 0.950801975943209
28.7920012250543 0.859343746910623
28.8080012258142 0.571029708845385
28.8240012265742 0.757240504271129
28.8400012273341 0.743034376993547
28.8560012280941 0.645355319314216
28.8720012288541 0.741310296995099
28.888001229614 0.609573978900089
28.904001230374 1.03836633406636
28.9200012311339 1.10716907963492
28.9360012318939 0.862253902522388
28.9520012326538 0.796237365502424
28.9680012334138 0.767098155510482
28.9840012341738 0.769578156564233
29.0000012349337 0.79990718480718
29.0160012356937 0.952247857450665
29.0320012364536 0.871043087317245
29.0480012372136 0.821635204866574
29.0640012379736 1.12887733450661
29.0800012387335 0.882714402585474
29.0960012394935 0.765517302302724
29.1120012402534 0.811510162891437
29.1280012410134 0.887841098111974
29.1440012417734 0.852965490891098
29.1600012425333 0.825549109845278
29.1760012432933 1.1325335252062
29.1920012440532 1.05112163162876
29.2080012448132 0.851884809541541
29.2240012455732 0.620300316183036
29.2400012463331 0.62845892776299
29.2560012470931 0.90826889920416
29.272001247853 1.00612580703054
29.288001248613 0.910435406934946
29.304001249373 0.7446837482082
29.3200012501329 1.05867334458951
29.3360012508929 0.48114215580607
29.3520012516528 0.486896357535304
29.3680012524128 0.46849389699506
29.3840012531727 0.223937502210051
29.4000012539327 0.579938428700133
29.4160012546927 0.45483216785671
29.4320012554526 0.304599678171742
29.4480012562126 0.565302775564035
29.4640012569725 0.68871551074921
29.4800012577325 0.894344208443531
29.4960012584925 0.718857092890312
29.5120012592524 0.700610232310058
29.5280012600124 1.03995291277995
29.5440012607723 0.920594592715272
29.5600012615323 0.722461166258489
29.5760012622923 0.54008262785343
29.5920012630522 0.453578586550739
29.6080012638122 0.647706844623295
29.6240012645721 0.954366647838764
29.6400012653321 0.947098388445738
29.6560012660921 0.631528593003166
29.672001266852 0.928225817688816
29.688001267612 1.13394248596714
29.7040012683719 0.801912931293639
29.7200012691319 0.413178327944445
29.7360012698919 0.850850276148972
29.7520012706518 0.971797182367494
29.7680012714118 0.912651702550024
29.7840012721717 0.800657211948913
29.8000012729317 0.975278453071478
29.8160012736916 1.05846340019163
29.8320012744516 0.959520816760421
29.8480012752116 0.907567003008651
29.8640012759715 1.11207540946714
29.8800012767315 0.715828340102954
29.8960012774914 0.861386881843067
29.9120012782514 1.20612145969388
29.9280012790114 1.02548691557746
29.9440012797713 1.01031656398285
29.9600012805313 0.872935429694039
29.9760012812912 0.880414510972464
29.9920012820512 1.21371647547503
30.0080012828112 0.843946160812672
30.0240012835711 1.08282956983361
30.0400012843311 0.787501335220364
30.056001285091 0.325356202802931
30.072001285851 0.480516298511372
30.088001286611 0.982576348558583
30.1040012873709 1.07117109056264
30.1200012881309 0.776416388585027
30.1360012888908 0.671335896526086
30.1520012896508 0.63718754730208
30.1680012904107 0.561945304035932
30.1840012911707 0.646430345522253
30.2000012919307 0.812512649080229
30.2160012926906 0.715347624717527
30.2320012934506 0.676010420370838
30.2480012942105 0.492262712196442
30.2640012949705 0.760469837248996
30.2800012957305 1.09571429933142
30.2960012964904 0.851972865278324
30.3120012972504 0.789598955957333
30.3280012980103 0.615804059760306
30.3440012987703 0.63204211277997
30.3600012995303 0.633072514577844
30.3760013002902 0.549991107890273
30.3920013010502 0.880785896161932
30.4080013018101 1.01328516248946
30.4240013025701 0.70315062819642
30.4400013033301 0.747978239293351
30.45600130409 0.811291746126985
30.47200130485 0.217993471488004
30.4880013056099 0.411949912368387
30.5040013063699 0.887967624796381
30.5200013071299 0.454735294139175
30.5360013078898 0.565976564395182
30.5520013086498 0.675820496598567
30.5680013094097 0.65592715163754
30.5840013101697 0.924699589920216
30.6000013109296 0.65925535080923
30.6160013116896 0.575992895778208
30.6320013124496 0.287168660448915
30.6480013132095 0.641991902143486
30.6640013139695 0.436357262072447
30.6800013147294 0.590472563766284
30.6960013154894 0.925784508358403
30.7120013162494 0.697215941402362
30.7280013170093 0.942905941003156
30.7440013177693 0.983198406526704
30.7600013185292 0.708501163354942
30.7760013192892 0.725935729687899
30.7920013200492 0.899054841422917
30.8080013208091 0.959583712776878
30.8240013215691 0.521085699777229
30.840001322329 0.252024298589012
30.856001323089 0.636574767195791
30.872001323849 0.763646944027352
30.8880013246089 0.637539614023387
30.9040013253689 0.820586342563484
30.9200013261288 0.875715937065463
30.9360013268888 0.706256880262305
30.9520013276488 1.03125165171768
30.9680013284087 0.875877803023121
30.9840013291687 0.642666030690643
31.0000013299286 0.732889139316647
31.0160013306886 0.972783516969711
31.0320013314485 0.900809608050308
31.0480013322085 0.442618663986224
31.0640013329685 0.742959595947601
31.0800013337284 0.776755924297982
31.0960013344884 0.62468736310851
31.1120013352483 0.62512147916186
31.1280013360083 1.0221394022848
31.1440013367683 0.680904536310361
31.1600013375282 0.795716315603309
31.1760013382882 0.823781310393697
31.1920013390481 1.00559574118074
31.2080013398081 0.863037401255932
31.2240013405681 1.05390069777337
31.240001341328 0.745114311988065
31.256001342088 0.710381398802362
31.2720013428479 0.746054578107996
31.2880013436079 0.806305406623846
31.3040013443679 1.27065658244494
31.3200013451278 0.753416562692752
31.3360013458878 0.767716792162439
31.3520013466477 0.976946743870796
31.3680013474077 0.747934766587871
31.3840013481677 0.968716910805039
31.4000013489276 1.27115025171236
31.4160013496876 0.919662859599969
31.4320013504475 0.521846141121291
31.4480013512075 0.894889978183084
31.4640013519674 1.12277642990701
31.4800013527274 0.752864817252849
31.4960013534874 0.55229892237778
31.5120013542473 0.47773089791877
31.5280013550073 0.309137416297121
31.5440013557672 0.841263989298831
31.5600013565272 0.773939584841761
31.5760013572872 0.857446369790344
31.5920013580471 0.716539711914287
31.6080013588071 0.764028953504875
31.624001359567 0.792697161070615
31.640001360327 0.621696860013197
31.656001361087 0.357889141191714
31.6720013618469 0.571936597368738
31.6880013626069 0.349018845026004
31.7040013633668 0.617017172907422
31.7200013641268 0.637637504492952
31.7360013648868 0.814335005503208
31.7520013656467 0.891774835612432
31.7680013664067 0.741738874647142
31.7840013671666 0.476061338150227
31.8000013679266 0.322939745774178
31.8160013686865 0.52748454408154
31.8320013694465 0.76228571489783
31.8480013702065 0.633592681430985
31.8640013709664 0.298454029325965
31.8800013717264 0.527592014231502
31.8960013724863 0.691097932849368
31.9120013732463 0.689235720615564
31.9280013740063 0.763456477444866
31.9440013747662 0.684745080792171
31.9600013755262 0.496021316902841
31.9760013762861 0.793949594463223
31.9920013770461 1.31146887522592
32.0080013778061 0.815940701070117
32.024001378566 0.70236961250675
32.040001379326 0.574024404317154
32.0560013800859 0.282921312366012
32.0720013808459 0.208081450472532
32.0880013816059 0.704449221088804
32.1040013823658 0.946159312075405
32.1200013831258 0.675409713787332
32.1360013838857 0.879449055928937
32.1520013846457 0.928033693134317
32.1680013854057 0.655867018570987
32.1840013861656 0.533274301554288
32.2000013869256 0.272726998285755
32.2160013876855 0.680581283619235
32.2320013884455 0.714027938555061
32.2480013892054 0.543413259981044
32.2640013899654 0.642787882833767
32.2800013907254 0.734602595413245
32.2960013914853 0.28386666917277
32.3120013922453 0.162908619171219
32.3280013930052 0.513140521396815
32.3440013937652 0.587072877398029
32.3600013945252 0.561651317227769
32.3760013952851 0.531500293088598
32.3920013960451 0.54591874401695
32.408001396805 0.797218940449595
32.424001397565 0.539600526599862
32.440001398325 0.542225940773319
32.4560013990849 0.650986203157586
32.4720013998449 0.644637930843469
32.4880014006048 0.691433287123692
32.5040014013648 0.482472162504829
32.5200014021248 0.395317296936717
32.5360014028847 0.518647848149241
32.5520014036447 0.619729691113715
32.5680014044046 0.74305282460646
32.5840014051646 0.429026948069779
32.6000014059246 0.241936184892023
32.6160014066845 0.596844866119319
32.6320014074445 0.73010089116252
32.6480014082044 0.726632585549956
32.6640014089644 0.771202307102609
32.6800014097243 0.752553234312568
32.6960014104843 0.611891228491196
32.7120014112443 0.681742802994684
32.7280014120042 0.717703324913687
32.7440014127642 0.841253750898984
32.7600014135241 0.479112370656575
32.7760014142841 0.516959119316745
32.7920014150441 0.821796259825559
32.808001415804 0.708832951260488
32.824001416564 0.466471325199858
32.8400014173239 0.83312319868538
32.8560014180839 0.862294883757597
32.8720014188439 0.590847585016794
32.8880014196038 1.02356302788501
32.9040014203638 0.870549696864263
32.9200014211237 0.45090447795517
32.9360014218837 0.525098422870069
32.9520014226437 0.471551730831221
32.9680014234036 0.78403283970335
32.9840014241636 0.86264773848948
33.0000014249235 0.619233370157181
33.0160014256835 0.410897896802547
33.0320014264435 0.618358997297889
33.0480014272034 0.542289169271761
33.0640014279634 0.453051393619365
33.0800014287233 0.506159974376882
33.0960014294833 0.682662261443186
33.1120014302432 0.534779093590103
33.1280014310032 0.540028997099578
33.1440014317632 0.897492914329066
33.1600014325231 0.592566503768246
33.1760014332831 0.654746749614082
33.192001434043 0.82780041223525
33.208001434803 0.789310591871462
33.224001435563 0.808873400692338
33.2400014363229 0.717932208094854
33.2560014370829 0.787942869660883
33.2720014378428 0.779424473869653
33.2880014386028 0.506609589723581
33.3040014393628 0.491405241396377
33.3200014401227 0.806846085206892
33.3360014408827 0.644376854145534
33.3520014416426 0.82162634290334
33.3680014424026 0.754970913545671
33.3840014431626 0.875299316238424
33.4000014439225 1.00603759814146
33.4160014446825 0.6786965981404
33.4320014454424 0.343987135011552
33.4480014462024 0.621027438502479
33.4640014469623 0.603440016785532
33.4800014477223 0.596640916201471
33.4960014484823 0.780001716409583
33.5120014492422 0.862105676942777
33.5280014500022 0.4686298552735
33.5440014507621 0.240919542720254
33.5600014515221 0.508894544439711
33.5760014522821 0.447766428173734
33.592001453042 0.607845744323187
33.608001453802 0.623883512723847
33.6240014545619 0.599042475797097
33.6400014553219 0.492953893052187
33.6560014560819 0.471799513663926
33.6720014568418 0.217554195633381
33.6880014576018 0.4140659860533
33.7040014583617 0.554808082581937
33.7200014591217 0.551278557274117
33.7360014598817 0.776004566873976
33.7520014606416 0.833541530642098
33.7680014614016 0.998509498069239
33.7840014621615 0.737514007869867
33.8000014629215 0.399679889853889
33.8160014636815 0.542198443605203
33.8320014644414 0.587165226053099
33.8480014652014 0.569421304976339
33.8640014659613 0.80262184781769
33.8800014667213 0.433664589834382
33.8960014674812 0.400952951284969
33.9120014682412 0.736135228158556
33.9280014690012 0.52005744679875
33.9440014697611 0.308422680608638
33.9600014705211 0.389087181412687
33.976001471281 0.524643710095569
33.992001472041 0.668220463333498
34.008001472801 0.559804835985297
34.0240014735609 0.479122448230244
34.0400014743209 0.442969210461388
34.0560014750808 0.720869094715644
34.0720014758408 0.648805139962437
34.0880014766008 0.647415749669726
34.1040014773607 0.607285036920857
34.1200014781207 0.181296127973031
34.1360014788806 0.303104122755991
34.1520014796406 0.539544862727505
34.1680014804006 0.552501319998701
34.1840014811605 0.64782254604604
34.2000014819205 0.776047876681552
34.2160014826804 0.861486398353165
34.2320014834404 1.21678781818571
34.2480014842004 1.00806738063067
34.2640014849603 0.720775227001583
34.2800014857203 0.704804836113487
34.2960014864802 0.631799763567564
34.3120014872402 0.622250955632834
34.3280014880001 0.714896112466977
34.3440014887601 0.74116079990762
34.3600014895201 0.975028830837983
34.37600149028 0.714622739294722
34.39200149104 0.722341023858153
34.4080014917999 1.16474742255353
34.4240014925599 1.06395851345351
34.4400014933199 1.23905856241991
34.4560014940798 1.63493439807884
34.4720014948398 1.7138384794524
34.4880014955997 1.30537795163484
34.5040014963597 1.38523803521596
34.5200014971197 1.70424896414234
34.5360014978796 1.57446555119101
34.5520014986396 1.90025734079726
34.5680014993995 2.00338782959772
34.5840015001595 1.52715401894306
34.6000015009195 1.40665553757201
34.6160015016794 2.1352778413355
34.6320015024394 2.25318653838346
34.6480015031993 2.02644075779066
34.6640015039593 1.99183651103329
34.6800015047193 2.16376563679044
34.6960015054792 1.96478836253663
34.7120015062392 1.96605978205705
34.7280015069991 2.01500317053697
34.7440015077591 2.35341978204205
34.760001508519 2.63384716830028
34.776001509279 2.50755498493482
34.792001510039 2.44945365909708
34.8080015107989 2.56961831907352
34.8240015115589 2.89094086375407
34.8400015123188 3.09989332277315
34.8560015130788 3.3344831095315
34.8720015138388 3.12154773324609
34.8880015145987 3.11612903087861
34.9040015153587 3.14557558409092
34.9200015161186 3.42458626055332
34.9360015168786 3.33602227528899
34.9520015176386 2.91691608638803
34.9680015183985 3.29435538611181
34.9840015191585 2.96721118173733
35.0000015199184 3.04790322528466
35.0160015206784 3.27861374181511
35.0320015214384 2.88173151468206
35.0480015221983 2.87034750386222
35.0640015229583 3.04144292288975
35.0800015237182 2.62319665816992
35.0960015244782 2.89053896897468
35.1120015252381 2.95574638760562
35.1280015259981 2.72742559684757
35.1440015267581 2.1130139592668
35.160001527518 2.26622957909376
35.176001528278 2.18603499752702
35.1920015290379 2.20130224361204
35.2080015297979 2.17421308548946
35.2240015305579 1.9240584062122
35.2400015313178 2.13362197158591
35.2560015320778 2.20044618628061
35.2720015328377 1.96676989517024
35.2880015335977 1.76209523531052
35.3040015343577 2.03909134793385
35.3200015351176 2.09183907908793
35.3360015358776 1.96893695200714
35.3520015366375 1.70511510518826
35.3680015373975 1.68322232751925
35.3840015381575 1.85652701225517
35.4000015389174 2.10744728071009
35.4160015396774 1.98770932117563
35.4320015404373 1.87127731899646
35.4480015411973 2.28007787313992
35.4640015419573 2.06543907501486
35.4800015427172 2.03763461103227
35.4960015434772 1.83607391235663
35.5120015442371 1.86406957802237
35.5280015449971 1.84255668490441
35.544001545757 1.74406625120794
35.560001546517 1.61101663106156
35.576001547277 1.89101729636648
35.5920015480369 2.0715755326688
35.6080015487969 1.48035903441556
35.6240015495568 1.3862481761358
35.6400015503168 1.86259285854678
35.6560015510768 2.03828088587491
35.6720015518367 1.83889415528355
35.6880015525967 1.68960454612353
35.7040015533566 1.82012630169469
35.7200015541166 1.80596778519395
35.7360015548766 1.46944358989287
35.7520015556365 1.62311089460196
35.7680015563965 1.99405862298324
35.7840015571564 1.91573972484847
35.8000015579164 1.99831162752718
35.8160015586764 1.90548934059112
35.8320015594363 1.86187560763977
35.8480015601963 1.74299215670709
35.8640015609562 1.89662368811772
35.8800015617162 2.28162885255858
35.8960015624762 2.08660696210704
35.9120015632361 2.36042987115289
35.9280015639961 2.41599360068345
35.944001564756 2.05890560645417
35.960001565516 1.85888534702674
35.9760015662759 1.9181456715621
35.9920015670359 2.22927649453388
36.0080015677959 2.32690373394048
36.0240015685558 1.87510049027671
36.0400015693158 1.8472154140744
36.0560015700757 1.99406127479674
36.0720015708357 2.01436672382608
36.0880015715957 1.68005328574251
36.1040015723556 1.81625935608503
36.1200015731156 1.77411411700055
36.1360015738755 2.06163319421916
36.1520015746355 2.04956219674459
36.1680015753955 1.78497395726871
36.1840015761554 1.58486258479613
36.2000015769154 1.50629185392951
36.2160015776753 1.6969501575475
36.2320015784353 1.81724675761335
36.2480015791953 1.24656252828308
36.2640015799552 1.39572950594768
36.2800015807152 1.69561658182534
36.2960015814751 1.42193393522956
36.3120015822351 1.67606714054874
36.328001582995 2.11550904826193
36.344001583755 2.18903295964293
36.360001584515 2.00792236938825
36.3760015852749 2.24799071070188
36.3920015860349 2.45459480705165
36.4080015867948 2.76626916520202
36.4240015875548 2.84084271099031
36.4400015883148 3.95815748866956
36.4560015890747 4.6231124210609
36.4720015898347 5.67385604371042
36.4880015905946 6.88896933407577
36.5040015913546 7.95398483454954
36.5200015921146 6.48784979292081
36.5360015928745 5.03310073252828
36.5520015936345 4.5779493277524
36.5680015943944 4.83812873980208
36.5840015951544 5.12838853732313
36.6000015959144 5.14306256818781
36.6160015966743 4.29816408671433
36.6320015974343 3.45435938798067
36.6480015981942 2.70261901401125
36.6640015989542 2.66589718205415
36.6800015997142 2.49032853109955
36.6960016004741 2.3715867525261
36.7120016012341 2.26965587039409
36.728001601994 2.14536130029033
36.744001602754 1.62468215471242
36.7600016035139 1.71586088961442
36.7760016042739 1.67582508633651
36.7920016050339 1.49741497116409
36.8080016057938 1.57145722582039
36.8240016065538 1.31343315401982
36.8400016073137 1.66519097442085
36.8560016080737 1.68903343234065
36.8720016088337 1.82722948731576
36.8880016095936 1.74619933356463
36.9040016103536 1.38872367463011
36.9200016111135 1.57416584768334
36.9360016118735 1.28849343925074
36.9520016126335 1.49016721684807
36.9680016133934 1.57755759580533
36.9840016141534 1.54298669247146
37.0000016149133 1.65630845028948
37.0160016156733 1.38739178084689
37.0320016164333 1.14479957742093
37.0480016171932 1.32109866934962
37.0640016179532 1.27645029046998
37.0800016187131 1.42967774716463
37.0960016194731 1.09147379230515
37.1120016202331 0.823674408707257
37.128001620993 0.807998765637375
37.144001621753 0.827847393526737
37.1600016225129 1.03804337337941
37.1760016232729 1.24792979305178
37.1920016240328 1.21146997597612
37.2080016247928 0.915945446118711
37.2240016255528 1.23045268067347
37.2400016263127 1.17835314002407
37.2560016270727 1.09934329445177
37.2720016278326 1.13749981865527
37.2880016285926 1.30596896707853
37.3040016293526 1.33114759713013
37.3200016301125 0.935746665880707
37.3360016308725 1.07655248290609
37.3520016316324 1.38032644327592
37.3680016323924 1.29053200838699
37.3840016331524 1.1501189183938
37.4000016339123 1.23724295440493
37.4160016346723 1.16233456525971
37.4320016354322 1.03614779782393
37.4480016361922 1.12696117446503
37.4640016369522 1.47072272471273
37.4800016377121 1.37256122877736
37.4960016384721 0.89685121892442
37.512001639232 1.53488589246009
37.528001639992 1.61858300916294
37.544001640752 1.51284264125004
37.5600016415119 1.81343227265743
37.5760016422719 1.65482061327454
37.5920016430318 1.905996571562
37.6080016437918 2.42363644234304
37.6240016445517 2.10058565958124
37.6400016453117 1.73224490760309
37.6560016460717 2.03668250248369
37.6720016468316 2.05696623893145
37.6880016475916 2.05236037995523
37.7040016483515 2.47606908855827
37.7200016491115 2.21072577163724
37.7360016498715 1.81350996589794
37.7520016506314 1.98562906382286
37.7680016513914 1.84367687992882
37.7840016521513 1.55442692458779
37.8000016529113 1.48564482173549
37.8160016536713 1.59809321051703
37.8320016544312 1.56849872559515
37.8480016551912 1.49456381720132
37.8640016559511 1.31595012074214
37.8800016567111 1.65210773879604
37.8960016574711 1.18955060871768
37.912001658231 1.11653102540536
37.928001658991 1.49323271206109
37.9440016597509 1.36017283364451
37.9600016605109 1.21471345463144
37.9760016612708 1.32561776556641
37.9920016620308 1.18628113090455
38.0080016627908 1.53472992168568
38.0240016635507 1.14517018236625
38.0400016643107 0.731835055600161
38.0560016650706 1.27099918749621
38.0720016658306 1.14094963049706
38.0880016665906 1.10968975555235
38.1040016673505 1.07502174512104
38.1200016681105 1.20054697267786
38.1360016688704 1.27558907898327
38.1520016696304 1.09238512879426
38.1680016703904 1.0852647676008
38.1840016711503 1.49487241831001
38.2000016719103 1.3943452128407
38.2160016726702 1.35674127852808
38.2320016734302 1.59995101547667
38.2480016741902 1.7186975754195
38.2640016749501 1.50829812139746
38.2800016757101 1.40096176998946
38.29600167647 1.25708663803012
38.31200167723 1.66769438710132
38.32800167799 1.79076067167141
38.3440016787499 1.22709461206999
38.3600016795099 1.15298724535381
38.3760016802698 1.28365966372003
38.3920016810298 1.74695943595567
38.4080016817897 1.72465809160997
38.4240016825497 1.97911015356737
38.4400016833097 2.13612490074316
38.4560016840696 1.72023401399576
38.4720016848296 1.65124951939273
38.4880016855895 1.67723704714218
38.5040016863495 1.82579381926572
38.5200016871095 1.77941074246085
38.5360016878694 1.24405524717054
38.5520016886294 1.41955315723053
38.5680016893893 1.67278314056187
38.5840016901493 1.28764942030695
38.6000016909093 0.951002064133203
38.6160016916692 1.0879873500066
38.6320016924292 1.23258671290614
38.6480016931891 1.24803424061206
38.6640016939491 1.41321749638995
38.6800016947091 1.27738499206415
38.696001695469 1.14799293867669
38.712001696229 1.07702613434816
38.7280016969889 1.42698274709247
38.7440016977489 1.18517086022891
38.7600016985089 1.07002132469164
38.7760016992688 1.26450970714645
38.7920017000288 1.00700153959522
38.8080017007887 1.13299637625317
38.8240017015487 1.12513354347962
38.8400017023086 1.21607753276226
38.8560017030686 1.12998166543454
38.8720017038286 1.11124948394926
38.8880017045885 0.831942607497966
38.9040017053485 0.431281118702234
38.9200017061084 0.706980686710898
38.9360017068684 0.941421140498271
38.9520017076284 0.711378321520455
38.9680017083883 0.724615197912582
38.9840017091483 0.765234056757718
39.0000017099082 0.913342166139477
39.0160017106682 0.842926361885388
39.0320017114282 0.944601563413103
39.0480017121881 1.01840471269641
39.0640017129481 1.1327948750336
39.080001713708 0.836025252074863
39.096001714468 0.667223537003043
39.112001715228 0.907441538197119
39.1280017159879 0.988403687625985
39.1440017167479 0.812578443217777
39.1600017175078 1.02024590479027
39.1760017182678 1.50445506437038
39.1920017190278 1.41972638209339
39.2080017197877 1.29405693300512
39.2240017205477 1.64916839636545
39.2400017213076 1.22779439130848
39.2560017220676 1.03382832866528
39.2720017228275 1.37762740530625
39.2880017235875 1.26570892591656
39.3040017243475 1.23598806025243
39.3200017251074 1.31433485972907
39.3360017258674 1.78058000811691
39.3520017266273 2.16180908809183
39.3680017273873 2.77303163672919
39.3840017281473 3.55778542407391
39.4000017289072 4.58704882554986
39.4160017296672 5.93073891531475
39.4320017304271 6.0373683678132
39.4480017311871 4.38864171344433
39.4640017319471 3.21826500833432
39.480001732707 2.99477469737052
39.496001733467 2.8346289796436
39.5120017342269 3.30348548982708
39.5280017349869 3.27257302755618
39.5440017357469 2.79538700263923
39.5600017365068 1.94802193905982
39.5760017372668 1.61448771533531
39.5920017380267 1.27272940436241
39.6080017387867 0.610690468877065
39.6240017395466 0.428106701465207
39.6400017403066 0.517176607958703
39.6560017410666 0.661094467436287
39.6720017418265 0.729075243835446
39.6880017425865 0.763160360824655
39.7040017433464 0.784095002598779
39.7200017441064 0.442684466827023
39.7360017448664 0.814140196308959
39.7520017456263 0.618666107615205
39.7680017463863 0.310899860667591
39.7840017471462 0.622395550976799
39.8000017479062 0.5849599869538
39.8160017486662 0.707479040829616
39.8320017494261 0.797111758071077
39.8480017501861 0.594170253591328
39.864001750946 0.581782291336719
39.880001751706 0.54254219555736
39.896001752466 0.663335190204558
39.9120017532259 0.535708097932385
39.9280017539859 0.586578295184722
39.9440017547458 0.676801008090546
39.9600017555058 0.970699911295071
39.9760017562658 1.07877785674319
39.9920017570257 0.956933123339313
