'Id: "" Comment: "" Operator: "Lab Manager" Anode: "Cu" Scantype: "Locked Coupled" TimePerStep: "157.8621" 
3 1.42896808810945
3.01600000075996 1.7855733122441
3.03200000151992 1.27160355516544
3.04800000227988 0.988733931723587
3.06400000303984 1.18749320192065
3.0800000037998 1.11563944264716
3.09600000455976 0.696211257550321
3.11200000531971 1.05056460182834
3.12800000607967 0.616773376533924
3.14400000683963 1.28479061384705
3.16000000759959 1.22053627464527
3.17600000835955 0.749649844998487
3.19200000911951 0.561010862404171
3.20800000987947 0.632582667548554
3.22400001063943 0.829238002708262
3.24000001139939 0.684622975709619
3.25600001215935 0.195555625305904
3.27200001291931 0.416818914619409
3.28800001367927 0.808891247439462
3.30400001443923 1.04083298552811
3.32000001519918 0.809241674646913
3.33600001595914 0.40238630629516
3.3520000167191 0.364100168475851
3.36800001747906 0.691916810942253
3.38400001823902 0.560339690861976
3.40000001899898 0.438245512998755
3.41600001975894 0.53121281111104
3.4320000205189 0.289130309090993
3.44800002127886 1.00162126047213
3.46400002203882 0.916439904865381
3.48000002279878 0.533735325283665
3.49600002355874 0.7392182994774
3.5120000243187 0.529562381145638
3.52800002507865 0.547282082159128
3.54400002583861 0.454052727469922
3.56000002659857 0.713069665457358
3.57600002735853 0.374669652468217
3.59200002811849 0.12292428832097
3.60800002887845 0.725527086541312
3.62400002963841 0.668685045074014
3.64000003039837 0.691081120768715
3.65600003115833 0.947033830108989
3.67200003191829 0.939386729017631
3.68800003267825 0.514058014052722
3.70400003343821 0.315400179629126
3.72000003419816 0.146730979277681
3.73600003495812 0.159605744996639
3.75200003571808 0.716383229067162
3.76800003647804 0.76667178007439
3.784000037238 0.528616717301947
3.80000003799796 0.527152080786873
3.81600003875792 0.474992602164516
3.83200003951788 0.503798942797477
3.84800004027784 0.659705994009322
3.8640000410378 0.544599297094422
3.88000004179776 0.381752179294665
3.89600004255772 0.483464012060544
3.91200004331768 0.0932398062784827
3.92800004407763 0.756105088131708
3.94400004483759 0.848918024755356
3.96000004559755 0.673687705634848
3.97600004635751 0.517402317791305
3.99200004711747 0.147698463323348
4.00800004787743 0.703774404939459
4.02400004863739 0.104423926095066
4.04000004939735 0.519072890946752
4.05600005015731 0.632360375071094
4.07200005091727 0.531432345284021
4.08800005167723 0.616347453830976
4.10400005243719 0.72136169541994
4.12000005319715 0.874416905938219
4.1360000539571 0.851025134644644
4.15200005471706 0.908547575736211
4.16800005547702 0.773397961680189
4.18400005623698 0.861719882872691
4.20000005699694 0.311762558515071
4.2160000577569 0.176732094758403
4.23200005851686 0.0439846663819985
4.24800005927682 0.510498982646535
4.26400006003678 0.493681982048116
4.28000006079674 0.597489735380382
4.2960000615567 0.511722139154251
4.31200006231666 0.242570794274474
4.32800006307662 0.475325887048538
4.34400006383657 0.566821910120424
4.36000006459653 0.366885068526571
4.37600006535649 0.455647661593886
4.39200006611645 0.285415433090993
4.40800006687641 0.19020854548446
4.42400006763637 0.701384594673637
4.44000006839633 0.882701326651802
4.45600006915629 0.797124221832924
4.47200006991625 0.626696231505399
4.48800007067621 0.71855350448724
4.50400007143617 0.894405799441831
4.52000007219613 0.381066279526575
4.53600007295609 0.314160392666306
4.55200007371604 0.563607790473139
4.568000074476 0.392882264509883
4.58400007523596 0.559160555560496
4.60000007599592 0.509144432348329
4.61600007675588 0.454455204921153
4.63200007751584 0.704198235855159
4.6480000782758 0.403297119576909
4.66400007903576 0.205770324099049
4.68000007979572 0.388979796685234
4.69600008055568 0.54939428996725
4.71200008131564 0.498538458462001
4.7280000820756 0.513610011554658
4.74400008283556 0.623813944423233
4.76000008359551 1.02173712654051
4.77600008435547 0.803071931290368
4.79200008511543 0.203624663423298
4.80800008587539 0.272419240248311
4.82400008663535 0.833135580244146
4.84000008739531 0.43700137281429
4.85600008815527 0.815416113150018
4.87200008891523 0.6748030644316
4.88800008967519 0.669623740032133
4.90400009043515 1.03258087933726
4.92000009119511 0.476715089507067
4.93600009195507 0.313630012621289
4.95200009271502 0.48219487979258
4.96800009347498 0.168466125936391
4.98400009423494 0.276413903978529
5.0000000949949 0.623129559993199
5.01600009575486 0.693926828140103
5.03200009651482 0.71436064320789
5.04800009727478 1.07744388051814
5.06400009803474 0.825644783471216
5.0800000987947 0.438699292688206
5.09600009955466 0.742820280868951
5.11200010031462 0.757538117228034
5.12800010107458 0.497242480101701
5.14400010183454 0.590491445952011
5.16000010259449 0.910037813600514
5.17600010335445 0.98621704471417
5.19200010411441 1.09232328123516
5.20800010487437 1.01441417927571
5.22400010563433 0.99986414788231
5.24000010639429 0.398325516903007
5.25600010715425 0.670498800225108
5.27200010791421 1.15551067172785
5.28800010867417 1.13428829880596
5.30400010943413 1.32035414865174
5.32000011019409 0.956456061422841
5.33600011095405 0.913338974554708
5.35200011171401 1.23046565931102
5.36800011247396 1.46665030150842
5.38400011323392 1.0654461881395
5.40000011399388 1.17195648822344
5.41600011475384 0.982103896177389
5.4320001155138 1.35008273654772
5.44800011627376 1.33336449401833
5.46400011703372 1.51131496262214
5.48000011779368 1.37722884744196
5.49600011855364 1.06556173258222
5.5120001193136 1.49065241358013
5.52800012007356 1.16178381497673
5.54400012083352 0.964324609236336
5.56000012159348 1.50979013675254
5.57600012235343 2.10176671493902
5.59200012311339 1.77351213733202
5.60800012387335 1.41761456023857
5.62400012463331 1.94894186371877
5.64000012539327 1.67248009312877
5.65600012615323 1.43779115027193
5.67200012691319 1.79727650779565
5.68800012767315 1.7606626094827
5.70400012843311 1.68324454988507
5.72000012919307 1.4854763590214
5.73600012995303 1.85488898576405
5.75200013071299 1.43328435983898
5.76800013147295 1.48051464556143
5.7840001322329 2.13191246110694
5.80000013299286 2.23823098491278
5.81600013375282 2.26124326781641
5.83200013451278 2.33292126730631
5.84800013527274 2.27390862865516
5.8640001360327 2.23675592662471
5.88000013679266 2.56506031038984
5.89600013755262 2.18768753246478
5.91200013831258 2.41775784236732
5.92800013907254 2.35172077675632
5.9440001398325 2.29276625679881
5.96000014059246 2.76050408397782
5.97600014135242 2.79347491717695
5.99200014211237 2.66370944236817
6.00800014287233 2.9771091401064
6.02400014363229 3.04900555377097
6.04000014439225 3.72664915153092
6.05600014515221 3.12038117124776
6.07200014591217 3.05075225356695
6.08800014667213 3.73928306411069
6.10400014743209 3.41161341223706
6.12000014819205 3.64379977215747
6.13600014895201 3.57402530137166
6.15200014971197 3.13116132017949
6.16800015047192 4.23123031831231
6.18400015123188 4.88275414811497
6.20000015199184 5.28911328012752
6.2160001527518 5.39128767197571
6.23200015351176 4.62826034680268
6.24800015427172 4.2829622510863
6.26400015503168 3.8457667948621
6.28000015579164 3.85441107271577
6.2960001565516 4.33268153563195
6.31200015731156 3.68268052480482
6.32800015807152 3.87816173671756
6.34400015883148 3.48298662290897
6.36000015959144 3.23809276325982
6.37600016035139 3.6419745943016
6.39200016111135 3.47480971095666
6.40800016187131 3.69267408614339
6.42400016263127 3.80081334529542
6.44000016339123 3.37098917358136
6.45600016415119 3.03027572356284
6.47200016491115 3.03770672698101
6.48800016567111 3.12441673006506
6.50400016643107 2.99060240757878
6.52000016719103 3.08965618911191
6.53600016795099 3.05524832665306
6.55200016871095 3.1078574947181
6.56800016947091 3.29378327772764
6.58400017023086 3.14718663808526
6.60000017099082 2.99209068663536
6.61600017175078 2.9334983372522
6.63200017251074 3.66653721080955
6.6480001732707 3.34274904759549
6.66400017403066 3.22589569307872
6.68000017479062 3.52466020774385
6.69600017555058 4.25811393235346
6.71200017631054 3.61129815555055
6.7280001770705 3.49344218678876
6.74400017783046 3.52335825364417
6.76000017859042 3.46910207363156
6.77600017935038 2.45914173714918
6.79200018011033 3.07482827464418
6.80800018087029 2.96134098953053
6.82400018163025 3.18075261928803
6.84000018239021 3.08374411305026
6.85600018315017 3.11784395672744
6.87200018391013 3.10571450206184
6.88800018467009 3.16456319259284
6.90400018543005 3.17492663224669
6.92000018619001 3.12758111749721
6.93600018694997 3.43898683987696
6.95200018770993 3.2162292785533
6.96800018846989 3.2142676015214
6.98400018922985 3.28192602785504
7.0000001899898 2.43752639344698
7.01600019074976 2.91959152112933
7.03200019150972 3.46923554964521
7.04800019226968 3.75005293085458
7.06400019302964 3.09525983716115
7.0800001937896 2.96693511309199
7.09600019454956 3.42277874211552
7.11200019530952 3.02168553237021
7.12800019606948 2.47658449593998
7.14400019682944 3.53521168426562
7.1600001975894 3.37329418449777
7.17600019834936 3.30960011450517
7.19200019910931 3.67235260123121
7.20800019986927 3.38986708817422
7.22400020062923 3.11738942093591
7.24000020138919 2.78756927438695
7.25600020214915 2.94197259743839
7.27200020290911 3.6143891261198
7.28800020366907 3.20709014885139
7.30400020442903 3.2678519156781
7.32000020518899 2.68048246774398
7.33600020594895 2.76649091041806
7.35200020670891 3.05699377414139
7.36800020746887 3.10008479078351
7.38400020822883 2.95564583902333
7.40000020898878 2.9882381359642
7.41600020974874 2.8602080242647
7.4320002105087 3.06835714328387
7.44800021126866 2.44799327019997
7.46400021202862 2.24276243202531
7.48000021278858 2.95129529770977
7.49600021354854 2.79379185622159
7.5120002143085 2.90965461759514
7.52800021506846 2.28417371728241
7.54400021582842 2.21235170079781
7.56000021658838 2.70747236342951
7.57600021734834 2.80886697511238
7.5920002181083 2.69362775236468
7.60800021886825 2.46362638631168
7.62400021962821 2.95082898268196
7.64000022038817 3.38363630737985
7.65600022114813 3.49731412996253
7.67200022190809 2.60928065950247
7.68800022266805 2.72750572595714
7.70400022342801 2.823008711168
7.72000022418797 2.92799006459424
7.73600022494793 3.21821843710012
7.75200022570789 3.00515718152418
7.76800022646785 3.31698843413295
7.78400022722781 3.03540221124463
7.80000022798777 3.03570620047883
7.81600022874772 3.05416189112052
7.83200022950768 2.82222854209054
7.84800023026764 3.02851226951917
7.8640002310276 2.9789406448402
7.88000023178756 3.01784428697407
7.89600023254752 2.81958657740083
7.91200023330748 2.63188069663936
7.92800023406744 2.78830336663014
7.9440002348274 2.9239274648578
7.96000023558736 3.05856247690393
7.97600023634732 2.68080983870198
7.99200023710728 2.32069995332485
8.00800023786724 2.60528207974611
8.0240002386272 3.17072346991663
8.04000023938715 2.61654392123537
8.05600024014711 2.65482325942427
8.07200024090707 2.99883902649416
8.08800024166703 2.539900598933
8.10400024242699 2.80687615749662
8.12000024318695 2.65254210815745
8.13600024394691 2.36419805073415
8.15200024470687 2.87770894855176
8.16800024546683 2.50142810614338
8.18400024622679 2.8078464785978
8.20000024698675 2.48023804598351
8.21600024774671 2.64418198699747
8.23200024850667 2.70200209461701
8.24800024926662 2.52218157974717
8.26400025002658 2.46423599307556
8.28000025078654 2.67967714176466
8.2960002515465 2.60462506527064
8.31200025230646 2.58621064255177
8.32800025306642 3.03770191420845
8.34400025382638 2.45267140101638
8.36000025458634 2.60559870217154
8.3760002553463 3.0645306317524
8.39200025610626 2.82030016349874
8.40800025686622 2.96351352669102
8.42400025762618 2.76812067555701
8.44000025838614 2.51972838574174
8.45600025914609 2.76523949367709
8.47200025990605 2.58661591253089
8.48800026066601 2.55075656626062
8.50400026142597 2.56411630143977
8.52000026218593 2.71035014700216
8.53600026294589 3.0951988411395
8.55200026370585 2.84727105594026
8.56800026446581 3.07813811959692
8.58400026522577 3.35904437447441
8.60000026598573 3.59868263105102
8.61600026674569 4.27919388764049
8.63200026750565 4.0069903317101
8.6480002682656 3.77360745348753
8.66400026902556 4.3763423695506
8.68000026978552 5.19252052981482
8.69600027054548 4.68996712820698
8.71200027130544 5.52355113628301
8.7280002720654 6.02176965646044
8.74400027282536 6.57563317612911
8.76000027358532 7.74447703549041
8.77600027434528 9.39570833221575
8.79200027510524 11.0422057708561
8.8080002758652 11.8248157577232
8.82400027662516 11.8492447388577
8.84000027738512 11.5288574745008
8.85600027814507 9.0990180575992
8.87200027890503 6.18196156952773
8.88800027966499 4.60016434678328
8.90400028042495 4.00797228133076
8.92000028118491 3.28589429956322
8.93600028194487 2.9067249139708
8.95200028270483 2.49638969416331
8.96800028346479 2.09449629826151
8.98400028422475 1.74355914523129
9.00000028498471 1.37249806586997
9.01600028574467 1.55626412229767
9.03200028650463 1.46724694344416
9.04800028726459 1.63569307596752
9.06400028802454 1.37187083648255
9.0800002887845 0.981387679309478
9.09600028954446 0.97120557534314
9.11200029030442 1.55470463713141
9.12800029106438 1.90835591127279
9.14400029182434 1.62304563218104
9.1600002925843 1.4533213525712
9.17600029334426 1.45907795334094
9.19200029410422 0.940658891027011
9.20800029486418 0.894757340256909
9.22400029562414 0.936542662922644
9.24000029638409 1.13162975093845
9.25600029714405 1.00860079881197
9.27200029790401 0.729830701405454
9.28800029866397 0.747379914798337
9.30400029942393 0.658919375362176
9.32000030018389 0.406135651329237
9.33600030094385 0.403017511553385
9.35200030170381 0.526188992549951
9.36800030246377 0.668267765571317
9.38400030322373 0.883036537662752
9.40000030398369 0.269329679855668
9.41600030474365 0.324975548951786
9.43200030550361 0.566468695491308
9.44800030626356 0.666910983125176
9.46400030702352 0.376577226356781
9.48000030778348 0.803665128415588
9.49600030854344 0.931702183451964
9.5120003093034 0.534981451117782
9.52800031006336 0.0815505403803183
9.54400031082332 0.36141190679205
9.56000031158328 0.524414334620454
9.57600031234324 0.756906309325366
9.5920003131032 0.630584512876728
9.60800031386316 0.748576955957823
9.62400031462312 0.327235569958384
9.64000031538307 0.141102956241948
9.65600031614303 0.364975772761792
9.67200031690299 0.414910885372375
9.68800031766295 0.452705445680632
9.70400031842291 0.354208826905982
9.72000031918287 0.340712103951379
9.73600031994283 0.416329576082262
9.75200032070279 0.30973181910695
9.76800032146275 0.527010543471995
9.78400032222271 0.194086334308702
9.80000032298267 0.258445516882336
9.81600032374263 0.186508080903785
9.83200032450259 0.644241276127236
9.84800032526254 0.624874368649319
9.8640003260225 0.0993072181253165
9.88000032678246 0.605413700254198
9.89600032754242 0.414083779100926
9.91200032830238 0.266375920134021
9.92800032906234 0.4562026418689
9.9440003298223 0.432882392743656
9.96000033058226 0.792231427826493
9.97600033134222 0.18309303108682
9.99200033210218 0.325082793489527
10.0080003328621 0.307837109121655
10.0240003336221 0.27884150889135
10.0400003343821 0.270823029420772
10.056000335142 0.727446181375516
10.072000335902 0.389967882395418
10.0880003366619 0.536941160313106
10.1040003374219 0.597881239256719
10.1200003381819 0.645211417378816
10.1360003389418 0.249682512474788
10.1520003397018 0.554498958263382
10.1680003404617 0.416606984972274
10.1840003412217 0.404440284997101
10.2000003419816 0.464751575778834
10.2160003427416 0.953134506285235
10.2320003435016 0.615900106660156
10.2480003442615 0.258010687539496
10.2640003450215 0.262088809030205
10.2800003457814 0.874270889397653
10.2960003465414 0.554557747815958
10.3120003473014 0.312674057156647
10.3280003480613 0.318114122768781
10.3440003488213 0.184581915328584
10.3600003495812 0.412053235445912
10.3760003503412 0.280871196294196
10.3920003511012 0.617226197962781
10.4080003518611 1.04947564974626
10.4240003526211 0.394896448966881
10.440000353381 0.256257912259246
10.456000354141 0.210617854332002
10.472000354901 0.604764259273823
10.4880003556609 0.482918599709926
10.5040003564209 0.352370770470937
10.5200003571808 0.327117887958407
10.5360003579408 0.829453711905478
10.5520003587008 0.653461672545626
10.5680003594607 0.451535483132316
10.5840003602207 0.301892425237886
10.6000003609806 0.210328935351173
10.6160003617406 0.222932532095637
10.6320003625005 0.513097515619926
10.6480003632605 0.397601800891207
10.6640003640205 0.412617255138915
10.6800003647804 0.720526411052958
10.6960003655404 0.554066963587724
10.7120003663003 0.470937900898599
10.7280003670603 0.58595784726111
10.7440003678203 0.740739803161304
10.7600003685802 0.709392986712661
10.7760003693402 0.674505449812523
10.7920003701001 0.28831677179787
10.8080003708601 0.476967965681727
10.8240003716201 0.680869142860313
10.84000037238 0.395785619309295
10.85600037314 0.786049529522348
10.8720003738999 0.867883227225917
10.8880003746599 0.745575281374464
10.9040003754199 0.647450363645437
10.9200003761798 0.450319007028938
10.9360003769398 0.84911305805292
10.9520003776997 0.991680640536652
10.9680003784597 0.952495830804247
10.9840003792196 0.873997535086266
11.0000003799796 1.15121520871829
11.0160003807396 1.39603591059525
11.0320003814995 0.966139084784867
11.0480003822595 0.630513510322489
11.0640003830194 0.605528062882126
11.0800003837794 0.725724485653322
11.0960003845394 1.20043865756945
11.1120003852993 0.883790142825944
11.1280003860593 0.768460709992629
11.1440003868192 0.99914955212973
11.1600003875792 0.793893364575604
11.1760003883392 0.604783628728228
11.1920003890991 0.626768022592533
11.2080003898591 0.767777003612105
11.224000390619 0.852501363235254
11.240000391379 1.10791121649926
11.256000392139 0.75264287984719
11.2720003928989 0.875517723574188
11.2880003936589 1.2267677326822
11.3040003944188 0.968493308004945
11.3200003951788 1.29831745267823
11.3360003959388 1.46811558850164
11.3520003966987 1.35503744934811
11.3680003974587 1.37383453583725
11.3840003982186 1.1691601437426
11.4000003989786 1.24399807808006
11.4160003997385 1.63971691324038
11.4320004004985 1.57041269327941
11.4480004012585 1.67795241816737
11.4640004020184 1.45789523273897
11.4800004027784 2.02162410126494
11.4960004035383 2.82414528015186
11.5120004042983 3.14672392255933
11.5280004050583 3.46490650281648
11.5440004058182 5.13117603891947
11.5600004065782 7.00846989182557
11.5760004073381 9.76059119252805
11.5920004080981 12.6009324532022
11.6080004088581 14.5273648155855
11.624000409618 12.5052915913839
11.640000410378 7.80264135790609
11.6560004111379 5.39892368613906
11.6720004118979 3.39951520201732
11.6880004126579 2.6568725051193
11.7040004134178 2.23829632532679
11.7200004141778 2.06964786829604
11.7360004149377 2.38117094589526
11.7520004156977 2.55309593641494
11.7680004164577 2.28883267956787
11.7840004172176 2.30022957906641
11.8000004179776 2.73163904096213
11.8160004187375 2.83979042416841
11.8320004194975 3.01312725749957
11.8480004202574 2.93733755755728
11.8640004210174 2.84051285542362
11.8800004217774 2.98810261423714
11.8960004225373 3.56348801585825
11.9120004232973 3.84004924475188
11.9280004240572 3.78946105361155
11.9440004248172 3.73688775501638
11.9600004255772 4.14546796805283
11.9760004263371 4.66857386522433
11.9920004270971 4.3694865650928
12.008000427857 4.81274653867155
12.024000428617 4.64493853191818
12.040000429377 4.82180537247334
12.0560004301369 5.46186807172714
12.0720004308969 6.07840691230139
12.0880004316568 6.37490312393422
12.1040004324168 6.97357104197439
12.1200004331768 7.41989751909009
12.1360004339367 8.1500882148725
12.1520004346967 9.24452410065719
12.1680004354566 10.5458094274955
12.1840004362166 11.3839788611606
12.2000004369766 13.1996890385035
12.2160004377365 15.0945775536081
12.2320004384965 17.5940958925862
12.2480004392564 20.4631365723617
12.2640004400164 23.9677662693588
12.2800004407763 28.3982979106465
12.2960004415363 33.3719674207161
12.3120004422963 37.1827326430201
12.3280004430562 39.1537462436425
12.3440004438162 36.7584158288504
12.3600004445761 30.8727295387819
12.3760004453361 24.305608452969
12.3920004460961 18.8741100312021
12.408000446856 16.1443495872783
12.424000447616 13.3870046602849
12.4400004483759 11.7903420194065
12.4560004491359 10.3168990536957
12.4720004498959 9.37240114643562
12.4880004506558 8.43512901239888
12.5040004514158 7.49547599730782
12.5200004521757 6.16552339484074
12.5360004529357 5.81822927071343
12.5520004536957 5.25251307217187
12.5680004544556 4.26242266382498
12.5840004552156 3.91911757552639
12.6000004559755 3.38004027222616
12.6160004567355 3.16540033671098
12.6320004574954 2.94238885564431
12.6480004582554 2.5010306759687
12.6640004590154 2.34361018811881
12.6800004597753 2.18054296571318
12.6960004605353 2.01609462056727
12.7120004612952 2.09916901586594
12.7280004620552 2.36548315219884
12.7440004628152 2.12768095926429
12.7600004635751 1.75898087902502
12.7760004643351 1.93873998438203
12.792000465095 1.12560834171466
12.808000465855 1.20727223964887
12.824000466615 1.27866848723962
12.8400004673749 1.24737400393032
12.8560004681349 1.2770588155991
12.8720004688948 1.11861377364856
12.8880004696548 0.63369300869514
12.9040004704148 1.16413975496448
12.9200004711747 1.1660234431115
12.9360004719347 1.21213713472722
12.9520004726946 0.909860608788266
12.9680004734546 0.876580815110035
12.9840004742146 0.893358572627619
13.0000004749745 0.643624231582212
13.0160004757345 0.55101264710412
13.0320004764944 0.986273704133389
13.0480004772544 0.931925402393945
13.0640004780143 0.924155065612748
13.0800004787743 0.888836293929517
13.0960004795343 1.11644960754067
13.1120004802942 0.964053367258442
13.1280004810542 0.513823963874419
13.1440004818141 0.690106422389057
13.1600004825741 0.779722257865956
13.1760004833341 0.87608415499918
13.192000484094 0.724118515917874
13.208000484854 0.700376499226461
13.2240004856139 0.795223017748839
13.2400004863739 0.567477115846344
13.2560004871339 0.858556039467542
13.2720004878938 0.681133992535583
13.2880004886538 0.563800450985429
13.3040004894137 0.326366561677137
13.3200004901737 0.422506904019304
13.3360004909337 0.710070858571767
13.3520004916936 0.744922516799637
13.3680004924536 0.609568616801882
13.3840004932135 0.670543978099161
13.4000004939735 0.813613273290864
13.4160004947335 0.517416441789484
13.4320004954934 0.236106215853003
13.4480004962534 0.554879249990487
13.4640004970133 0.79593271917947
13.4800004977733 0.59115066427854
13.4960004985332 0.640281192997401
13.5120004992932 0.568493603138446
13.5280005000532 0.520612372142953
13.5440005008131 0.436246177382095
13.5600005015731 0.775411071299287
13.576000502333 0.47525935440809
13.592000503093 0.466105528270331
13.608000503853 0.502742385062596
13.6240005046129 0.448592085893994
13.6400005053729 0.104771624189072
13.6560005061328 0.489717627288509
13.6720005068928 0.574191914763102
13.6880005076528 0.604954040803696
13.7040005084127 0.752284983408971
13.7200005091727 0.450378329255207
13.7360005099326 0.723457130324354
13.7520005106926 0.534742471022141
13.7680005114526 0.251876937339309
13.7840005122125 0.708556429083434
13.8000005129725 0.519875134770928
13.8160005137324 0.423910221588468
13.8320005144924 0.984735968022111
13.8480005152523 0.98081303818977
13.8640005160123 0.895099911470281
13.8800005167723 0.562184501640878
13.8960005175322 0.581413593462346
13.9120005182922 0.579809441921975
13.9280005190521 0.456149855893744
13.9440005198121 0.412318767487712
13.9600005205721 0.191653161345719
13.976000521332 0.127049840854088
13.992000522092 0.450958523895697
14.0080005228519 0.570252524278125
14.0240005236119 0.513018922103979
14.0400005243719 0.763582648628587
14.0560005251318 0.5992651735774
14.0720005258918 0.259401500473422
14.0880005266517 0.484762951355989
14.1040005274117 0.742072615026522
14.1200005281717 0.224541500206522
14.1360005289316 0.122818330904021
14.1520005296916 0.329128751593377
14.1680005304515 0.529124878893406
14.1840005312115 0.380266278038371
14.2000005319715 0.287535209400045
14.2160005327314 0.42699044188386
14.2320005334914 0.500286629213626
14.2480005342513 0.594088410281533
14.2640005350113 0.707325758029282
14.2800005357712 0.721583732955769
14.2960005365312 0.765001186212912
14.3120005372912 0.731761785744004
14.3280005380511 0.362215182599055
14.3440005388111 0.423121185888858
14.360000539571 0.495115903075242
14.376000540331 0.404560160945215
14.392000541091 0.454784953882516
14.4080005418509 0.382878198643094
14.4240005426109 0.66596880355053
14.4400005433708 0.517331387316424
14.4560005441308 0.758500533973204
14.4720005448908 0.595673106610094
14.4880005456507 0.625825937433184
14.5040005464107 0.490681671858958
14.5200005471706 0.526782575996797
14.5360005479306 0.388941580027767
14.5520005486906 0.332189795990546
14.5680005494505 0.515518517105372
14.5840005502105 0.346817036973431
14.6000005509704 0.350879091494812
14.6160005517304 0.45097802109477
14.6320005524904 0.27645859123849
14.6480005532503 0.329451220208768
14.6640005540103 0.687185489754754
14.6800005547702 0.547112147502503
14.6960005555302 0.38283871705443
14.7120005562901 0.278857624353472
14.7280005570501 0.272835523376886
14.7440005578101 0.621567039136126
14.76000055857 0.397451351589019
14.77600055933 0.162177657859409
14.7920005600899 0.314999631185215
14.8080005608499 0.570692339476669
14.8240005616099 0.492115714413745
14.8400005623698 0.484890051852865
14.8560005631298 0.527384096553867
14.8720005638897 0.398643978845575
14.8880005646497 0.261550806481008
14.9040005654097 0.538363303198699
14.9200005661696 0.335450914393141
14.9360005669296 0.465031726400985
14.9520005676895 0.674724025229208
14.9680005684495 0.528861897711076
14.9840005692095 0.654141957116519
15.0000005699694 0.415974851062303
15.0160005707294 0.533310951453892
15.0320005714893 0.39297389350589
15.0480005722493 0.36219929809158
15.0640005730093 0.385070598485005
15.0800005737692 0.397978510148731
15.0960005745292 0.591911115992785
15.1120005752891 0.543386526212932
15.1280005760491 0.577377415960968
15.144000576809 0.449731947599264
15.160000577569 0.189964913846246
15.176000578329 0.274028817464135
15.1920005790889 0.269948464284369
15.2080005798489 0.234990382243708
15.2240005806088 0.707985974130747
15.2400005813688 0.709318474169599
15.2560005821288 0.504002061421714
15.2720005828887 0.660904185285685
15.2880005836487 0.223512219691487
15.3040005844086 0.365152153698527
15.3200005851686 0.434958023873486
15.3360005859286 0.482123464960567
15.3520005866885 0.608600822985768
15.3680005874485 0.688413389497796
15.3840005882084 0.489747813947448
15.4000005889684 0.385853931637516
15.4160005897284 0.607687333485453
15.4320005904883 0.304171705662037
15.4480005912483 0.107775979623813
15.4640005920082 0.337188133654457
15.4800005927682 0.379379644105174
15.4960005935281 0.645161179192673
15.5120005942881 0.423453122107404
15.5280005950481 0.700523620733783
15.544000595808 0.638123718648733
15.560000596568 0.613408867767297
15.5760005973279 0.42329123234286
15.5920005980879 0.611324404024083
15.6080005988479 0.707055598975455
15.6240005996078 0.573605157391111
15.6400006003678 0.624475503589294
15.6560006011277 0.850581228688963
15.6720006018877 0.654754051023715
15.6880006026477 0.308765968402389
15.7040006034076 0.493696964508057
15.7200006041676 0.399050695160603
15.7360006049275 0.234496253047874
15.7520006056875 0.393375384137029
15.7680006064475 0.196711678969753
15.7840006072074 0.255512598988642
15.8000006079674 0.619235012115595
15.8160006087273 0.422001496570431
15.8320006094873 0.596777424253315
15.8480006102473 0.548952786401307
15.8640006110072 0.55925672415183
15.8800006117672 0.682473889797882
15.8960006125271 0.476967494641136
15.9120006132871 0.218070262439394
15.928000614047 0.425594258508591
15.944000614807 0.326195709674639
15.960000615567 0.458557464272121
15.9760006163269 0.508650516263579
15.9920006170869 0.29897481791074
16.0080006178468 0.476723333033183
16.0240006186068 0.574508785711723
16.0400006193668 0.468610555974553
16.0560006201267 0.572958148910852
16.0720006208867 0.507666791245715
16.0880006216466 0.331005146263813
16.1040006224066 0.529530416621568
16.1200006231666 0.367156067004993
16.1360006239265 0.567732923898245
16.1520006246865 0.421275674030277
16.1680006254464 0.361466169022946
16.1840006262064 0.549322716185151
16.2000006269664 0.609626114868676
16.2160006277263 0.631460926042982
16.2320006284863 0.598139612192175
16.2480006292462 0.648879148589089
16.2640006300062 0.749780440972849
16.2800006307661 0.556080863544643
16.2960006315261 0.364769609056041
16.3120006322861 0.392766146440457
16.328000633046 0.358730004346553
16.344000633806 0.29283932639443
16.3600006345659 0.309660912688643
16.3760006353259 0.530715806879765
16.3920006360859 0.330993132980375
16.4080006368458 0.48243918295642
16.4240006376058 0.455106171789888
16.4400006383657 0.244442044344152
16.4560006391257 0.479346736552511
16.4720006398857 0.80363442929514
16.4880006406456 0.601194319727895
16.5040006414056 0.48323429334571
16.5200006421655 0.547255883404458
16.5360006429255 0.257570849591177
16.5520006436855 0.630899525939742
16.5680006444454 0.641120500065565
16.5840006452054 0.215111052407805
16.6000006459653 0.613245297927738
16.6160006467253 0.715092897755619
16.6320006474853 0.397370622906725
16.6480006482452 0.393790206781225
16.6640006490052 0.559697358015783
16.6800006497651 0.233645220526991
16.6960006505251 0.540483529126012
16.712000651285 0.556229012859951
16.728000652045 0.404247429250523
16.744000652805 0.471033292954242
16.7600006535649 0.510513582869039
16.7760006543249 0.702389523831297
16.7920006550848 0.526168677883725
16.8080006558448 0.422766868148655
16.8240006566048 0.491091691868352
16.8400006573647 0.550971184541266
16.8560006581247 0.378477109756828
16.8720006588846 0.35614736774099
16.8880006596446 0.407789326895098
16.9040006604046 0.510145425021426
16.9200006611645 0.723643822095079
16.9360006619245 0.82751307655733
16.9520006626844 0.286712135475748
16.9680006634444 0.619806584217242
16.9840006642044 0.643966965493414
17.0000006649643 0.549738314201885
17.0160006657243 0.290164296321158
17.0320006664842 0.385142965033314
17.0480006672442 0.682697413811285
17.0640006680042 0.31597439247812
17.0800006687641 0.296786647726496
17.0960006695241 0.702844556360771
17.112000670284 0.9663516958385
17.128000671044 0.678542381761315
17.1440006718039 0.550606691815261
17.1600006725639 0.584970053886451
17.1760006733239 0.650986664475124
17.1920006740838 0.65084995508361
17.2080006748438 0.340948900553676
17.2240006756037 0.234521795854952
17.2400006763637 0.309857803969421
17.2560006771237 0.536897273243248
17.2720006778836 0.740399594465685
17.2880006786436 0.596635424377327
17.3040006794035 0.208814711079919
17.3200006801635 0.450688889991048
17.3360006809235 0.621376186735825
17.3520006816834 0.638428013387173
17.3680006824434 0.850701567693666
17.3840006832033 0.845033376575584
17.4000006839633 0.745518679672547
17.4160006847233 1.11506962587575
17.4320006854832 1.42766316088801
17.4480006862432 0.966318252702393
17.4640006870031 0.85455863336677
17.4800006877631 0.935249861336972
17.4960006885231 0.69552185066885
17.512000689283 0.934572269570164
17.528000690043 1.28317769039421
17.5440006908029 1.00670016091998
17.5600006915629 0.797507625476611
17.5760006923228 1.27719177180049
17.5920006930828 1.72150552797447
17.6080006938428 1.66815521808528
17.6240006946027 1.7321948304509
17.6400006953627 1.65265445822745
17.6560006961226 2.09703299742308
17.6720006968826 2.78873913985584
17.6880006976426 3.09021782996747
17.7040006984025 3.05031956508089
17.7200006991625 3.44837172963155
17.7360006999224 3.19943455176273
17.7520007006824 2.71409221860749
17.7680007014424 2.46105551598033
17.7840007022023 2.51919743050512
17.8000007029623 1.8475891482948
17.8160007037222 1.51115217833301
17.8320007044822 1.55574267645128
17.8480007052422 1.43579132279879
17.8640007060021 1.36164402209996
17.8800007067621 1.24414356134198
17.896000707522 1.40674277704876
17.912000708282 1.38884589577838
17.9280007090419 1.09860950356596
17.9440007098019 1.10112273643715
17.9600007105619 0.677774688908576
17.9760007113218 1.14459789599626
17.9920007120818 1.35737278133756
18.0080007128417 1.21795773453083
18.0240007136017 0.896191846594755
18.0400007143617 0.945155556322587
18.0560007151216 0.967520401128228
18.0720007158816 0.700226846846474
18.0880007166415 0.527399087961916
18.1040007174015 0.740446182024334
18.1200007181615 0.599681247164474
18.1360007189214 0.623202630690341
18.1520007196814 1.19149857669936
18.1680007204413 1.00261801953675
18.1840007212013 0.790081982741945
18.2000007219613 0.688660584088842
18.2160007227212 0.998785288866649
18.2320007234812 1.28036955250121
18.2480007242411 1.28902960362559
18.2640007250011 1.1110429703851
18.2800007257611 0.716912486943056
18.296000726521 0.641103795210414
18.312000727281 0.861006824083583
18.3280007280409 0.602902420457021
18.3440007288009 0.78438785703776
18.3600007295608 1.02701350548038
18.3760007303208 0.694428853121747
18.3920007310808 0.961555035911127
18.4080007318407 1.11467738210661
18.4240007326007 0.637678346755602
18.4400007333606 0.896419624268304
18.4560007341206 0.815658472286056
18.4720007348806 0.821632742132611
18.4880007356405 0.815836022630624
18.5040007364005 1.00896028927723
18.5200007371604 0.960598177198957
18.5360007379204 0.505436302448903
18.5520007386804 0.550124419204187
18.5680007394403 0.585454615938199
18.5840007402003 0.7653466833738
18.6000007409602 0.712084377666326
18.6160007417202 0.798509485458662
18.6320007424802 0.700113901267246
18.6480007432401 0.946110249079418
18.6640007440001 1.1401906322351
18.68000074476 1.17878500385465
18.69600074552 1.33678800407147
18.71200074628 1.25620798089221
18.7280007470399 1.3454518222807
18.7440007477999 0.948075219955961
18.7600007485598 1.07380358807231
18.7760007493198 1.29050171082978
18.7920007500797 1.12007052534151
18.8080007508397 0.936031042877869
18.8240007515997 0.712741596573003
18.8400007523596 0.899249621664176
18.8560007531196 0.874372374986769
18.8720007538795 0.409873971371404
18.8880007546395 0.324450927577309
18.9040007553995 0.392336391441786
18.9200007561594 0.607654420723075
18.9360007569194 0.575125933719096
18.9520007576793 0.436303700854046
18.9680007584393 0.483693441814372
18.9840007591993 0.438779692670318
19.0000007599592 0.574813297514207
19.0160007607192 0.329665870572451
19.0320007614791 0.32587562432551
19.0480007622391 0.451134247198011
19.0640007629991 0.277058463605827
19.080000763759 0.53223642419089
19.096000764519 0.533586859856261
19.1120007652789 0.227038847859776
19.1280007660389 0
19.1440007667989 0.596215519325512
19.1600007675588 0.443110928259902
19.1760007683188 0.0862149065966262
19.1920007690787 0.320935963072976
19.2080007698387 0.524922924000067
19.2240007705986 0.287734769433264
19.2400007713586 0.399475654002501
19.2560007721186 0.457079466521535
19.2720007728785 0.369683822878043
19.2880007736385 0.595632574338498
19.3040007743984 0.43052342762659
19.3200007751584 0.463763534820521
19.3360007759184 0.649795911947521
19.3520007766783 0.242001675287435
19.3680007774383 0.216241231302537
19.3840007781982 0.622780443822472
19.4000007789582 0.922286524692203
19.4160007797182 0.577822757177318
19.4320007804781 0.40227882677755
19.4480007812381 0.710426086143586
19.464000781998 0.696226959217473
19.480000782758 0.567098270308853
19.496000783518 0.869080460411496
19.5120007842779 1.14044328455564
19.5280007850379 1.04819077425405
19.5440007857978 0.799527754432395
19.5600007865578 1.12491616671666
19.5760007873177 1.37891315960577
19.5920007880777 1.64273680748924
19.6080007888377 1.86380966213456
19.6240007895976 1.74523230999175
19.6400007903576 2.18294514544836
19.6560007911175 2.55220066810982
19.6720007918775 2.59083481662871
19.6880007926375 2.68928146759935
19.7040007933974 2.98940540679696
19.7200007941574 3.42653294347003
19.7360007949173 3.78788250128551
19.7520007956773 4.14228773839932
19.7680007964373 4.58743716536756
19.7840007971972 4.84481835989189
19.8000007979572 4.94128565032108
19.8160007987171 5.1576495714356
19.8320007994771 5.33306137060817
19.8480008002371 5.1133153248365
19.864000800997 5.1218810045774
19.880000801757 4.7919236884814
19.8960008025169 4.6422196473094
19.9120008032769 4.83139084633186
19.9280008040369 4.64225961729364
19.9440008047968 4.68827413276138
19.9600008055568 3.81565030228464
19.9760008063167 3.82109998037961
19.9920008070767 3.8269054753444
20.0080008078366 4.03201246936117
20.0240008085966 3.93686073166826
20.0400008093566 3.39419606500875
20.0560008101165 3.29019282205269
20.0720008108765 3.29792096417709
20.0880008116364 3.38968242074654
20.1040008123964 2.92238839640868
20.1200008131564 3.23205818779485
20.1360008139163 3.02745538994006
20.1520008146763 3.00193503476809
20.1680008154362 2.90940263897045
20.1840008161962 2.87557651057313
20.2000008169562 3.10993836479184
20.2160008177161 3.27033652779788
20.2320008184761 3.21403428144126
20.248000819236 3.06911626456516
20.264000819996 3.36033730825416
20.280000820756 3.27507716304952
20.2960008215159 3.1031319136047
20.3120008222759 2.94395532289767
20.3280008230358 3.21184664123661
20.3440008237958 2.86792152875032
20.3600008245558 2.40831418365965
20.3760008253157 2.84171262173457
20.3920008260757 2.99564692068474
20.4080008268356 2.72833173719895
20.4240008275956 2.8848518671928
20.4400008283555 2.61032608226888
20.4560008291155 3.03682917717089
20.4720008298755 2.70158546816748
20.4880008306354 2.80525679767725
20.5040008313954 2.65765259706114
20.5200008321553 2.4494336789283
20.5360008329153 2.45744615862659
20.5520008336753 2.68088352292944
20.5680008344352 2.89792071721226
20.5840008351952 3.12926428139708
20.6000008359551 3.22859515708001
20.6160008367151 2.9384544433463
20.6320008374751 3.33147637175612
20.648000838235 3.29464796162174
20.664000838995 3.67543734169623
20.6800008397549 4.21023585059334
20.6960008405149 4.4369644836029
20.7120008412749 5.10803405111786
20.7280008420348 6.5314692717044
20.7440008427948 7.82432659829753
20.7600008435547 10.0048938029844
20.7760008443147 13.4469609883379
20.7920008450747 19.0372682492141
20.8080008458346 24.3472957232069
20.8240008465946 26.7986423352051
20.8400008473545 22.6864915999433
20.8560008481145 17.876023284891
20.8720008488744 15.8278257130816
20.8880008496344 12.3389253959047
20.9040008503944 8.43250387383879
20.9200008511543 5.45534105061125
20.9360008519143 4.27405970312195
20.9520008526742 3.54713717551184
20.9680008534342 3.18462501489403
20.9840008541942 3.01390174085709
21.0000008549541 2.78066515560526
21.0160008557141 2.51311000427666
21.032000856474 2.36462713036595
21.048000857234 2.33516034633967
21.064000857994 2.02307806513524
21.0800008587539 1.87022132705815
21.0960008595139 2.32599782162229
21.1120008602738 2.15284103934785
21.1280008610338 2.15761303840557
21.1440008617938 1.72555339691043
21.1600008625537 1.58003589316882
21.1760008633137 1.78733392860114
21.1920008640736 2.11192397300378
21.2080008648336 2.46813208576029
21.2240008655935 2.17151608249236
21.2400008663535 1.86727744076765
21.2560008671135 1.98497267560048
21.2720008678734 1.70979792164244
21.2880008686334 1.8250463901289
21.3040008693933 2.17569827998994
21.3200008701533 1.53654200635116
21.3360008709133 1.75800727984265
21.3520008716732 1.75108758534455
21.3680008724332 1.92579555650606
21.3840008731931 1.89168339300588
21.4000008739531 1.90435959050093
21.4160008747131 1.80931283754906
21.432000875473 1.77787965878358
21.448000876233 1.83871987686449
21.4640008769929 1.79430612161052
21.4800008777529 2.02705840787471
21.4960008785129 1.90480896689034
21.5120008792728 1.71838648617041
21.5280008800328 2.07150545617224
21.5440008807927 1.81659447374531
21.5600008815527 1.48636614745381
21.5760008823127 1.83093069974641
21.5920008830726 1.30869023948736
21.6080008838326 1.47419529898554
21.6240008845925 1.41501984874436
21.6400008853525 1.26348139985643
21.6560008861124 1.61173001056256
21.6720008868724 1.55610820016997
21.6880008876324 1.38123561943884
21.7040008883923 1.3790578070712
21.7200008891523 1.32824702927271
21.7360008899122 1.45064438812731
21.7520008906722 1.51453073799905
21.7680008914322 1.09317879021562
21.7840008921921 1.34964094464076
21.8000008929521 0.947211265814721
21.816000893712 0.888113279950549
21.832000894472 1.1994877674856
21.848000895232 1.28908863455269
21.8640008959919 1.44340514595961
21.8800008967519 1.1825855367749
21.8960008975118 1.63254217516901
21.9120008982718 1.46213733385015
21.9280008990318 1.33940648954355
21.9440008997917 1.71189780950237
21.9600009005517 1.79046630098603
21.9760009013116 1.15220782868332
21.9920009020716 1.23772347377256
22.0080009028316 1.4415469343647
22.0240009035915 1.25325729037324
22.0400009043515 1.32522248916717
22.0560009051114 1.12559469468447
22.0720009058714 1.1468118374053
22.0880009066313 1.16098991887969
22.1040009073913 1.02071457939202
22.1200009081513 1.1993542148863
22.1360009089112 0.964385736797911
22.1520009096712 0.91778945662417
22.1680009104311 0.914065749792928
22.1840009111911 0.379874394668633
22.2000009119511 0.726392073536099
22.216000912711 0.932572831531346
22.232000913471 0.932150777508159
22.2480009142309 0.972954179824505
22.2640009149909 0.701532242269976
22.2800009157509 1.09013565836374
22.2960009165108 1.17463643260122
22.3120009172708 0.958106639391383
22.3280009180307 1.19055901755052
22.3440009187907 1.02612580829323
22.3600009195507 0.682482997633651
22.3760009203106 0.770076007117138
22.3920009210706 0.422439370267633
22.4080009218305 0.374556036216187
22.4240009225905 0.798808134236557
22.4400009233504 1.11768250488393
22.4560009241104 1.11378226069696
22.4720009248704 0.550035799071718
22.4880009256303 0.390110822579497
22.5040009263903 0.510353891792868
22.5200009271502 0.913136292756283
22.5360009279102 0.845307115874227
22.5520009286702 0.889092418071604
22.5680009294301 0.903006636401182
22.5840009301901 0.626926904094313
22.60000093095 0.793537674832999
22.61600093171 1.12341372682371
22.63200093247 0.734596177912047
22.6480009332299 0.615514418860494
22.6640009339899 0.652285977806099
22.6800009347498 0.93071190309706
22.6960009355098 0.833491621956759
22.7120009362698 0.786658557110414
22.7280009370297 1.14614841894692
22.7440009377897 1.05075839511677
22.7600009385496 1.09763657418601
22.7760009393096 0.885893872201766
22.7920009400696 0.595869842789866
22.8080009408295 0.709981882588261
22.8240009415895 0.878624822652437
22.8400009423494 0.495855775175562
22.8560009431094 1.03479569247767
22.8720009438693 1.06147243801538
22.8880009446293 0.840864628161718
22.9040009453893 0.933295775647505
22.9200009461492 0.690981720005719
22.9360009469092 0.857718272040926
22.9520009476691 1.0572995056857
22.9680009484291 0.981611635852255
22.9840009491891 0.857470973776689
23.000000949949 0.789722897682001
23.016000950709 0.886236611407484
23.0320009514689 0.948867594381577
23.0480009522289 0.634621609946125
23.0640009529889 0.348462630947239
23.0800009537488 0.769765534300353
23.0960009545088 0.940071374476594
23.1120009552687 0.531362032894875
23.1280009560287 0.653597702126267
23.1440009567887 0.815838015589614
23.1600009575486 0.815182347146224
23.1760009583086 0.710372683599855
23.1920009590685 0.684390100263657
23.2080009598285 0.701960515288322
23.2240009605885 0.559949221699584
23.2400009613484 0.933286015301899
23.2560009621084 1.09944063873112
23.2720009628683 1.00387960922433
23.2880009636283 1.22837126309514
23.3040009643882 1.17904577876856
23.3200009651482 1.26723727490611
23.3360009659082 1.68691216836368
23.3520009666681 2.57813267486488
23.3680009674281 2.22795127099674
23.384000968188 1.77814522918055
23.400000968948 1.47551621491729
23.416000969708 1.5919396693628
23.4320009704679 1.13903631397062
23.4480009712279 0.937456925601926
23.4640009719878 0.799507709643263
23.4800009727478 1.01858804794824
23.4960009735078 0.605363835548163
23.5120009742677 0.699734399231689
23.5280009750277 0.733350048294155
23.5440009757876 0.967103950637223
23.5600009765476 1.28105268128374
23.5760009773076 0.560120997896998
23.5920009780675 0.364218177095634
23.6080009788275 0.406929425409786
23.6240009795874 0.943773071177296
23.6400009803474 0.945764197423202
23.6560009811074 0.503956502947015
23.6720009818673 0.73734085144647
23.6880009826273 0.880714132677401
23.7040009833872 0.727320860827612
23.7200009841472 1.16750419097503
23.7360009849071 0.768849884952234
23.7520009856671 0.627217250665747
23.7680009864271 0.984022468501624
23.784000987187 0.95191363899576
23.800000987947 0.756673447235877
23.8160009887069 0.801261231670392
23.8320009894669 0.926530516656852
23.8480009902269 0.850042437480104
23.8640009909868 1.06479545289944
23.8800009917468 1.22584327890418
23.8960009925067 0.973034757501008
23.9120009932667 0.850606568110623
23.9280009940267 1.28065969435423
23.9440009947866 1.17921695704283
23.9600009955466 1.13850820903068
23.9760009963065 1.04197148695963
23.9920009970665 1.35423603600925
24.0080009978265 1.13254491705865
24.0240009985864 0.995917044739384
24.0400009993464 1.01063410153286
24.0560010001063 1.10034968808123
24.0720010008663 1.20236134300084
24.0880010016262 1.19381770339312
24.1040010023862 0.966253146712663
24.1200010031462 1.29008837953119
24.1360010039061 1.5300844867974
24.1520010046661 1.21961743763699
24.168001005426 1.48692974875788
24.184001006186 1.51532377805995
24.200001006946 1.4478594371744
24.2160010077059 1.63016086295912
24.2320010084659 1.77880534991713
24.2480010092258 1.63409669584646
24.2640010099858 1.42692519916951
24.2800010107458 1.1524364065611
24.2960010115057 1.37196195369873
24.3120010122657 1.79420117405586
24.3280010130256 1.80197157766682
24.3440010137856 1.71796543162282
24.3600010145456 1.67369850179594
24.3760010153055 1.67525090754088
24.3920010160655 1.41794770366141
24.4080010168254 1.83204884507342
24.4240010175854 1.806085109148
24.4400010183454 1.79586628625702
24.4560010191053 1.90243733851712
24.4720010198653 1.60119216204245
24.4880010206252 2.27808544830865
24.5040010213852 2.6090628888957
24.5200010221451 2.35624147327319
24.5360010229051 2.26943018280777
24.5520010236651 2.71467284441029
24.568001024425 2.61584875950442
24.584001025185 3.0216049415555
24.6000010259449 2.93272153718835
24.6160010267049 3.19936799843419
24.6320010274649 3.47448292754849
24.6480010282248 3.76162251576238
24.6640010289848 4.49470321536669
24.6800010297447 5.21733029046162
24.6960010305047 5.54226674376068
24.7120010312647 6.55799199203629
24.7280010320246 7.54482352195414
24.7440010327846 8.70739334060108
24.7600010335445 9.96976079879371
24.7760010343045 11.979590750249
24.7920010350645 14.253917708055
24.8080010358244 17.3999981582599
24.8240010365844 19.2465932530822
24.8400010373443 19.2944011763931
24.8560010381043 18.5952657131159
24.8720010388643 17.6480196659089
24.8880010396242 15.611584824031
24.9040010403842 14.3514361838398
24.9200010411441 12.8197289850649
24.9360010419041 10.7830483314409
24.952001042664 9.28257216157616
24.968001043424 7.79783323753562
24.984001044184 7.75339867967683
25.0000010449439 7.09895989629982
25.0160010457039 6.55770600964309
25.0320010464638 5.96926906258563
25.0480010472238 5.77645521073664
25.0640010479838 5.25471461207136
25.0800010487437 4.41415358697569
25.0960010495037 4.25182603030761
25.1120010502636 4.50347800834574
25.1280010510236 4.88913096595276
25.1440010517836 4.71735306782521
25.1600010525435 4.72412355829495
25.1760010533035 4.66622007051552
25.1920010540634 4.46436041952005
25.2080010548234 4.2516109416513
25.2240010555834 4.651522814585
25.2400010563433 4.74809077843323
25.2560010571033 4.64300267973977
25.2720010578632 4.23013342098052
25.2880010586232 4.38622821038975
25.3040010593832 4.10301213866067
25.3200010601431 3.82403964901705
25.3360010609031 3.51854384694538
25.352001061663 3.41292706230506
25.368001062423 3.12925590898288
25.3840010631829 2.70996531114479
25.4000010639429 2.70321477382435
25.4160010647029 2.33127520397491
25.4320010654628 2.38254438960426
25.4480010662228 2.37235224817918
25.4640010669827 2.45857261046583
25.4800010677427 2.3350533406861
25.4960010685027 2.44808036940424
25.5120010692626 2.24969887277618
25.5280010700226 1.82687744593974
25.5440010707825 2.07615506836039
25.5600010715425 1.97826707239434
25.5760010723025 2.04033058827895
25.5920010730624 2.10765197007338
25.6080010738224 2.33165098151362
25.6240010745823 2.17820554182026
25.6400010753423 2.36227161453889
25.6560010761023 2.09427818201601
25.6720010768622 1.99562809135434
25.6880010776222 1.99436100103502
25.7040010783821 2.1223389365775
25.7200010791421 2.32255861277166
25.736001079902 2.19950203426091
25.752001080662 1.93767301370622
25.768001081422 1.83475284967028
25.7840010821819 2.08603863068534
25.8000010829419 1.72056028194724
25.8160010837018 1.8586641924493
25.8320010844618 2.05579465867792
25.8480010852218 1.86585214362309
25.8640010859817 1.77631359173294
25.8800010867417 1.99700253909154
25.8960010875016 2.05452536563329
25.9120010882616 1.91228906273312
25.9280010890216 1.67636430420397
25.9440010897815 1.79070229279243
25.9600010905415 1.66388662724944
25.9760010913014 1.73232235460448
25.9920010920614 1.73189447846641
26.0080010928214 1.85659020462501
26.0240010935813 1.93441042139131
26.0400010943413 1.87295410727973
26.0560010951012 2.24023708026975
26.0720010958612 2.02958784326591
26.0880010966212 2.02316693345828
26.1040010973811 2.20739262645849
26.1200010981411 2.09113405255312
26.136001098901 1.97893239642219
26.152001099661 2.25955446403499
26.1680011004209 2.32108441065353
26.1840011011809 2.3953665806734
26.2000011019409 2.391475747735
26.2160011027008 2.70169043365627
26.2320011034608 2.80229009258618
26.2480011042207 3.10552849361629
26.2640011049807 3.39487242375792
26.2800011057407 3.19352904681808
26.2960011065006 3.25505506419828
26.3120011072606 3.77540292403188
26.3280011080205 3.99589548874698
26.3440011087805 4.11226593639762
26.3600011095405 4.30883040881808
26.3760011103004 4.90083995337723
26.3920011110604 5.24595250803543
26.4080011118203 5.7315908036074
26.4240011125803 6.67094876833276
26.4400011133403 8.1767380590607
26.4560011141002 9.33023263768951
26.4720011148602 10.6255310123132
26.4880011156201 13.4523307474712
26.5040011163801 17.6521843484812
26.5200011171401 24.0118036146033
26.5360011179 32.8476155501819
26.55200111866 47.1347617431743
26.5680011194199 68.2777529413408
26.5840011201799 91.3644821646343
26.6000011209398 104.628372899129
26.6160011216998 92.9916948284567
26.6320011224598 70.9784272363783
26.6480011232197 63.6936495315648
26.6640011239797 61.6068160132727
26.6800011247396 51.633130027253
26.6960011254996 35.2297673620263
26.7120011262596 23.2854557756351
26.7280011270195 16.8391626369173
26.7440011277795 14.4950708428111
26.7600011285394 12.2779275943112
26.7760011292994 10.882012491335
26.7920011300594 9.94728969178914
26.8080011308193 8.34177747496762
26.8240011315793 7.18626985078018
26.8400011323392 6.39587513380392
26.8560011330992 5.54166813896936
26.8720011338592 4.90195469990153
26.8880011346191 4.45905099130686
26.9040011353791 4.07187733924901
26.920001136139 3.41653147383235
26.936001136899 3.67460478090301
26.952001137659 3.55448486499838
26.9680011384189 2.79118688756869
26.9840011391789 2.70300196352572
27.0000011399388 2.64260831506537
27.0160011406988 2.86119133255518
27.0320011414587 2.51291658152761
27.0480011422187 2.81998155260657
27.0640011429787 2.44186379917949
27.0800011437386 2.04510332223668
27.0960011444986 1.83410786802814
27.1120011452585 2.45906362995706
27.1280011460185 2.0423558230923
27.1440011467785 1.63702306441431
27.1600011475384 2.04012871174903
27.1760011482984 2.25357501234447
27.1920011490583 1.97318914980738
27.2080011498183 1.78888617988012
27.2240011505783 1.95349011430093
27.2400011513382 1.76775939030529
27.2560011520982 1.8150994309661
27.2720011528581 1.91146167443907
27.2880011536181 1.57863630820441
27.3040011543781 1.52902415609949
27.320001155138 1.33003410038521
27.336001155898 1.76943309125956
27.3520011566579 1.96938386692361
27.3680011574179 1.9239671345139
27.3840011581778 2.2195171933559
27.4000011589378 2.11372009905336
27.4160011596978 2.29646117662174
27.4320011604577 2.01401772546097
27.4480011612177 2.12304006677091
27.4640011619776 1.68945477272104
27.4800011627376 1.57335532184699
27.4960011634976 1.72112738138206
27.5120011642575 1.5446890376998
27.5280011650175 1.47527987366912
27.5440011657774 1.93472636877425
27.5600011665374 1.74069848208363
27.5760011672974 1.68083060261218
27.5920011680573 1.56127069927885
27.6080011688173 1.48338531037504
27.6240011695772 1.58361808523209
27.6400011703372 1.59996447108414
27.6560011710972 1.7744181923834
27.6720011718571 2.00382977495228
27.6880011726171 1.92713959531611
27.704001173377 2.29746178070397
27.720001174137 2.29496190905986
27.7360011748969 2.2140396162069
27.7520011756569 2.15410574500476
27.7680011764169 2.25631662090511
27.7840011771768 2.11128900319686
27.8000011779368 2.15149457960622
27.8160011786967 2.00045845820969
27.8320011794567 1.7378148511028
27.8480011802167 2.17190949948258
27.8640011809766 2.511075962109
27.8800011817366 2.78381782250557
27.8960011824965 2.59840073501844
27.9120011832565 2.56867723497414
27.9280011840165 2.52193883219585
27.9440011847764 2.2687972963725
27.9600011855364 1.90480554479512
27.9760011862963 1.39233193218577
27.9920011870563 1.50070397632692
28.0080011878163 1.65150114954363
28.0240011885762 1.2710288827355
28.0400011893362 1.32300705410632
28.0560011900961 1.57065837914599
28.0720011908561 1.11366220365466
28.0880011916161 1.15981637799505
28.104001192376 1.28611963449813
28.120001193136 1.51112452899372
28.1360011938959 1.37680706541492
28.1520011946559 1.01294856663386
28.1680011954158 1.01493234210972
28.1840011961758 0.862316743027158
28.2000011969358 0.837479697630811
28.2160011976957 1.24955701595245
28.2320011984557 0.893036115218713
28.2480011992156 0.688341571245817
28.2640011999756 0.870183128746467
28.2800012007356 0.950352690751934
28.2960012014955 1.08334359134885
28.3120012022555 0.891674146539748
28.3280012030154 1.04560698641031
28.3440012037754 0.797846217637954
28.3600012045354 0.863427148877474
28.3760012052953 0.979822429441047
28.3920012060553 0.750240700218757
28.4080012068152 0.875823159109241
28.4240012075752 0.49862212177347
28.4400012083352 0.604238792275207
28.4560012090951 0.824977226744514
28.4720012098551 0.856117262288672
28.488001210615 0.928425387251337
28.504001211375 0.477179010418454
28.520001212135 0.502095950896351
28.5360012128949 0.377599305854782
28.5520012136549 0.610558902169951
28.5680012144148 0.799209799714856
28.5840012151748 0.693758414065032
28.6000012159347 0.746446584647217
28.6160012166947 0.847713492645193
28.6320012174547 0.736169887549658
28.6480012182146 0.789788323468241
28.6640012189746 0.742179429007241
28.6800012197345 0.773960542381617
28.6960012204945 0.687783260225286
28.7120012212545 0.716028592245713
28.7280012220144 0.571584148587361
28.7440012227744 0.767397618292908
28.7600012235343 0.629675255655752
28.7760012242943 0.521184189594488
28.7920012250543 0.961454430075325
28.8080012258142 0.909831823513845
28.8240012265742 0.663481776731242
28.8400012273341 0.856672854403194
28.8560012280941 0.760061048067294
28.8720012288541 0.679521445986778
28.888001229614 0.753009657165956
28.904001230374 0.633913647795941
28.9200012311339 0.790555214976575
28.9360012318939 0.614929015336282
28.9520012326538 1.06383309966375
28.9680012334138 1.1003888519471
28.9840012341738 0.975259060459605
29.0000012349337 1.22664188110564
29.0160012356937 1.32159763023935
29.0320012364536 1.75009988997498
29.0480012372136 1.45513416148977
29.0640012379736 1.66518642937809
29.0800012387335 1.6277367431055
29.0960012394935 1.38736553427068
29.1120012402534 1.44665773397704
29.1280012410134 1.23447675199534
29.1440012417734 1.44663220728765
29.1600012425333 1.21964051014814
29.1760012432933 1.14562246309366
29.1920012440532 0.88323496553002
29.2080012448132 0.933712122167199
29.2240012455732 1.02617601129298
29.2400012463331 0.402160180383175
29.2560012470931 0.620007649617667
29.272001247853 0.595485830573341
29.288001248613 0.318098375594767
29.304001249373 0.309204608354669
29.3200012501329 0.525623757566851
29.3360012508929 0.582510734910038
29.3520012516528 0.350216058342581
29.3680012524128 0.276388527693513
29.3840012531727 0.545072393801298
29.4000012539327 0.605597131038691
29.4160012546927 0.833264831164029
29.4320012554526 0.344522444601839
29.4480012562126 0.588212234924925
29.4640012569725 0.729107110001748
29.4800012577325 0.438534734406287
29.4960012584925 0.54992231070792
29.5120012592524 0.692107065303856
29.5280012600124 0.939861736335463
29.5440012607723 0.75476110455742
29.5600012615323 0.698056708052648
29.5760012622923 0.724598302736075
29.5920012630522 0.614843295372425
29.6080012638122 0.822321703763267
29.6240012645721 0.72715762450411
29.6400012653321 0.691419358741554
29.6560012660921 0.772733589899883
29.672001266852 0.973756430654086
29.688001267612 0.839840971129443
29.7040012683719 0.584484162697009
29.7200012691319 0.821712226026031
29.7360012698919 0.965603149042817
29.7520012706518 0.867065707681004
29.7680012714118 0.794280256975473
29.7840012721717 0.735189045653541
29.8000012729317 1.05823216827098
29.8160012736916 0.990211185982165
29.8320012744516 0.645943609892266
29.8480012752116 0.952230614888729
29.8640012759715 0.963615805070907
29.8800012767315 0.924785944289158
29.8960012774914 0.992132446006424
29.9120012782514 0.547217546691925
29.9280012790114 0.554608861258648
29.9440012797713 0.844587655911027
29.9600012805313 0.834388766856914
29.9760012812912 0.66234360258074
29.9920012820512 0.500086680201409
30.0080012828112 0.871242984361251
30.0240012835711 0.726002707103764
30.0400012843311 0.606776860229634
30.056001285091 0.828547358841913
30.072001285851 0.709714683111808
30.088001286611 0.730337422398299
30.1040012873709 0.518923713342963
30.1200012881309 0.605661337029362
30.1360012888908 0.463206332870167
30.1520012896508 0.518768974162064
30.1680012904107 0.684829726185909
30.1840012911707 0.636057768580685
30.2000012919307 0.431933782368518
30.2160012926906 0.647606073963144
30.2320012934506 0.677124672123814
30.2480012942105 0.845645750398054
30.2640012949705 0.584183977512957
30.2800012957305 0.759787894486314
30.2960012964904 0.840331091582231
30.3120012972504 0.603360939081637
30.3280012980103 0.49300177163216
30.3440012987703 0.670479827390465
30.3600012995303 0.868688873500592
30.3760013002902 0.63094817419057
30.3920013010502 0.543382426921754
30.4080013018101 0.923444763669195
30.4240013025701 0.863772804162372
30.4400013033301 0.628969834604641
30.45600130409 0.672880399040366
30.47200130485 0.619743895266605
30.4880013056099 0.67649911794487
30.5040013063699 0.412364574101947
30.5200013071299 0.612015589843735
30.5360013078898 0.557661822143507
30.5520013086498 0.190749071219769
30.5680013094097 0.528512162929089
30.5840013101697 0.756235156082882
30.6000013109296 0.49260900148967
30.6160013116896 0.351949047153447
30.6320013124496 0.391322718854732
30.6480013132095 0.545601438322734
30.6640013139695 0.452530714470603
30.6800013147294 0.466060485570351
30.6960013154894 0.545091388127113
30.7120013162494 0.34897864124633
30.7280013170093 0.52074257641379
30.7440013177693 0.545300109307377
30.7600013185292 0.732610215591799
30.7760013192892 0.797367687288821
30.7920013200492 0.740568364268328
30.8080013208091 0.70805946168443
30.8240013215691 0.67128789241951
30.840001322329 0.535297240562675
30.856001323089 0.571445794954046
30.872001323849 0.716533564616757
30.8880013246089 0.793182603978298
30.9040013253689 0.481860336771864
30.9200013261288 0.515114026418328
30.9360013268888 0.747585021206377
30.9520013276488 1.086345686037
30.9680013284087 0.884372045623524
30.9840013291687 0.927394349916003
31.0000013299286 0.875289414215737
31.0160013306886 0.926448886106614
31.0320013314485 0.815694490268142
31.0480013322085 0.577978489274801
31.0640013329685 0.763815387053194
31.0800013337284 0.851413217192947
31.0960013344884 0.627593433013089
31.1120013352483 0.809068820894714
31.1280013360083 0.852826994018439
31.1440013367683 0.646148135747111
31.1600013375282 0.856334339158451
31.1760013382882 0.996210686085508
31.1920013390481 1.31945554911972
31.2080013398081 1.32895556524482
31.2240013405681 0.84010975360995
31.240001341328 0.687439296453424
31.256001342088 0.69953729306522
31.2720013428479 0.600563525461073
31.2880013436079 0.65693973299728
31.3040013443679 0.689708482915727
31.3200013451278 0.707655451158497
31.3360013458878 0.795725526335056
31.3520013466477 0.718493127959388
31.3680013474077 0.831571160015431
31.3840013481677 1.04842389002151
31.4000013489276 0.993529895438958
31.4160013496876 0.803519551222776
31.4320013504475 0.623408151515679
31.4480013512075 0.689773227335412
31.4640013519674 0.739610302062936
31.4800013527274 0.876821681080926
31.4960013534874 0.828191881887446
31.5120013542473 1.11302135893471
31.5280013550073 1.13241007595029
31.5440013557672 0.800629002331793
31.5600013565272 0.324747940962204
31.5760013572872 0.809424521573844
31.5920013580471 0.941957003291353
31.6080013588071 0.624815796154552
31.624001359567 0.588274566618375
31.640001360327 0.71037940783035
31.656001361087 0.526165839447934
31.6720013618469 0.449904677918687
31.6880013626069 0.546641812599221
31.7040013633668 0.385094769980752
31.7200013641268 0.25517940529037
31.7360013648868 0.642596110357777
31.7520013656467 0.809495693697523
31.7680013664067 0.734058694703688
31.7840013671666 0.698023568283637
31.8000013679266 0.59115175070543
31.8160013686865 0.455167988665734
31.8320013694465 0.614650768547815
31.8480013702065 0.739804199905141
31.8640013709664 0.823831300589126
31.8800013717264 0.739076626887318
31.8960013724863 0.295922666079461
31.9120013732463 0.639379659843525
31.9280013740063 1.13182652361401
31.9440013747662 1.00468827594493
31.9600013755262 0.721243763076151
31.9760013762861 0.651351229883731
31.9920013770461 0.602135571432139
32.0080013778061 0.616372533219173
32.024001378566 0.707796788573655
32.040001379326 0.713867095649213
32.0560013800859 0.64034761134063
32.0720013808459 0.666400649724901
32.0880013816059 0.664199632987545
32.1040013823658 0.625393356876861
32.1200013831258 0.706345611843641
32.1360013838857 0.544398710788845
32.1520013846457 0.869661581749257
32.1680013854057 0.841220450096301
32.1840013861656 0.497584722195017
32.2000013869256 0.18438936975031
32.2160013876855 0.643515532337422
32.2320013884455 0.444572439513095
32.2480013892054 0.502006108060712
32.2640013899654 0.226688985481726
32.2800013907254 0.35752057842048
32.2960013914853 0.587726944614875
32.3120013922453 0.642116008009165
32.3280013930052 0.6114985344352
32.3440013937652 0.628975797148615
32.3600013945252 0.294675465993947
32.3760013952851 0.0240379424179036
32.3920013960451 0.430190866919792
32.408001396805 0.338818629198735
32.424001397565 0.322196971387997
32.440001398325 0.323493509596313
32.4560013990849 0.520836741290121
32.4720013998449 0.486232293647998
32.4880014006048 0.139352331236456
32.5040014013648 0.406171910716856
32.5200014021248 0.581419571976748
32.5360014028847 0.652225022888408
32.5520014036447 0.399728617944488
32.5680014044046 0.414174179287781
32.5840014051646 0.518981674403038
32.6000014059246 0.587172067147835
32.6160014066845 0.697258272110493
32.6320014074445 0.284668925187169
32.6480014082044 0.270195699755361
32.6640014089644 0.66647745675824
32.6800014097243 0.65596905221767
32.6960014104843 0.654876151865948
32.7120014112443 0.659188169309623
32.7280014120042 0.565512458270552
32.7440014127642 0.572418133291839
32.7600014135241 0.55443118247919
32.7760014142841 0.681586327589641
32.7920014150441 0.612681163673968
32.808001415804 0.427777722596867
32.824001416564 0.285116887837286
32.8400014173239 0.503510298131757
32.8560014180839 0.291024374954926
32.8720014188439 0.496811184023981
32.8880014196038 0.130955003105903
32.9040014203638 0.538793905025468
32.9200014211237 0.324822893207025
32.9360014218837 0.508373308305176
32.9520014226437 0.262199539712849
32.9680014234036 0.308663917091724
32.9840014241636 0.614297444336803
33.0000014249235 0.605428514129465
33.0160014256835 0.547687188370856
33.0320014264435 0.624483450427562
33.0480014272034 0.689031669854555
33.0640014279634 0.234007190189368
33.0800014287233 0.215926868316007
33.0960014294833 0.498942128350823
33.1120014302432 0.462545480397536
33.1280014310032 0.54786213202138
33.1440014317632 0.674798336665332
33.1600014325231 0.526930716662456
33.1760014332831 1.08633207024853
33.192001434043 0.769799156324148
33.208001434803 0.688638643574332
33.224001435563 0.658407796888826
33.2400014363229 0.505024972422357
33.2560014370829 0.632198557285082
33.2720014378428 0.815119122999963
33.2880014386028 0.559387218872391
33.3040014393628 0.591551240443897
33.3200014401227 0.927666605463362
33.3360014408827 0.607318991184518
33.3520014416426 0.580662842269239
33.3680014424026 0.689463345788926
33.3840014431626 0.791569242323935
33.4000014439225 0.665310435539365
33.4160014446825 0.755765576910528
33.4320014454424 0.629188400026052
33.4480014462024 0.636159464210655
33.4640014469623 0.544869119739754
33.4800014477223 0.474250752032003
33.4960014484823 0.601660964405371
33.5120014492422 0.517026780172369
33.5280014500022 0.486364144076656
33.5440014507621 0.283220203234738
33.5600014515221 0.581039527285923
33.5760014522821 0.443210556642152
33.592001453042 0.586341100911539
33.608001453802 0.451382663039201
33.6240014545619 0.280566140815221
33.6400014553219 0.353331021077868
33.6560014560819 0.117937213703426
33.6720014568418 0.300194979394012
33.6880014576018 0.477973013267081
33.7040014583617 0.694252872114963
33.7200014591217 0.543272578995431
33.7360014598817 0.375736567618693
33.7520014606416 0.521023924240969
33.7680014614016 0.387406030283142
33.7840014621615 0.344917005338202
33.8000014629215 0.268769050134114
33.8160014636815 0.509633762852012
33.8320014644414 0.34712213735119
33.8480014652014 0.400243692036883
33.8640014659613 0.34177033725926
33.8800014667213 0.42741683053123
33.8960014674812 0.517995099767782
33.9120014682412 0.720267529460497
33.9280014690012 0.78343410144473
33.9440014697611 0.604270360904317
33.9600014705211 0.475365197557958
33.976001471281 0.616975041837148
33.992001472041 0.509183938513909
34.008001472801 0.489450490380086
34.0240014735609 0.703679464262458
34.0400014743209 0.581082484604195
34.0560014750808 0.652173452664706
34.0720014758408 0.573257788922307
34.0880014766008 0.636554943327913
34.1040014773607 0.510656934164276
34.1200014781207 0.339896893156394
34.1360014788806 0.348064716638611
34.1520014796406 0.464308444536449
34.1680014804006 0.448693613040375
34.1840014811605 0.31934793256537
34.2000014819205 0.421516394297647
34.2160014826804 0.85599247667181
34.2320014834404 0.794328514611123
34.2480014842004 0.474059478419289
34.2640014849603 0.495673933780608
34.2800014857203 0.439216049217754
34.2960014864802 0.494413019303374
34.3120014872402 0.627631727157943
34.3280014880001 0.884070438185421
34.3440014887601 0.824896917817493
34.3600014895201 0.714910912021763
34.37600149028 0.690683182297144
34.39200149104 0.586596399362008
34.4080014917999 0.666878471506432
34.4240014925599 0.944806364798161
34.4400014933199 1.1890317134246
34.4560014940798 1.13483127197614
34.4720014948398 1.19324426372288
34.4880014955997 1.11553088602525
34.5040014963597 1.32273267315655
34.5200014971197 1.51103733996929
34.5360014978796 1.72194162155771
34.5520014986396 1.55719726031707
34.5680014993995 1.62708165657782
34.5840015001595 1.83358115937449
34.6000015009195 1.68938540657994
34.6160015016794 1.48843133644477
34.6320015024394 1.84060127763989
34.6480015031993 1.70496075507444
34.6640015039593 1.80021728271679
34.6800015047193 2.22627903443331
34.6960015054792 2.20754096011645
34.7120015062392 1.87812766561356
34.7280015069991 2.14092840172793
34.7440015077591 2.26128369480409
34.760001508519 2.13913812513585
34.776001509279 2.43270504414043
34.792001510039 2.55747517583505
34.8080015107989 2.55815657948171
34.8240015115589 3.0380085108323
34.8400015123188 2.96864026955159
34.8560015130788 3.21755620572661
34.8720015138388 3.09640077578957
34.8880015145987 3.30532398000274
34.9040015153587 3.33516947229895
34.9200015161186 3.55242102314362
34.9360015168786 3.439590098452
34.9520015176386 3.5184058981439
34.9680015183985 3.69566565298374
34.9840015191585 3.09680221594377
35.0000015199184 3.21556459914972
35.0160015206784 2.99291779739225
35.0320015214384 2.91140534384042
35.0480015221983 2.88484043417267
35.0640015229583 2.76501963680686
35.0800015237182 2.58458538168013
35.0960015244782 2.61771762796004
35.1120015252381 2.68587069544806
35.1280015259981 2.27380550467512
35.1440015267581 1.97885887533959
35.160001527518 2.28734493951195
35.176001528278 2.2752284336044
35.1920015290379 2.06645327237607
35.2080015297979 2.32680808176199
35.2240015305579 2.09378154099761
35.2400015313178 1.88863901676802
35.2560015320778 1.89439779183632
35.2720015328377 1.90739432319395
35.2880015335977 1.7957965614107
35.3040015343577 1.81541773809277
35.3200015351176 1.64769116374647
35.3360015358776 1.95535826852857
35.3520015366375 1.78563499043883
35.3680015373975 1.79778600767432
35.3840015381575 1.4930687796589
35.4000015389174 1.71703868872994
35.4160015396774 1.90964646610286
35.4320015404373 1.73488911702125
35.4480015411973 1.54478359049119
35.4640015419573 1.69673245843905
35.4800015427172 1.63252114840378
35.4960015434772 1.64431937614682
35.5120015442371 1.60675462024279
35.5280015449971 1.64680718048337
35.544001545757 1.5941731434168
35.560001546517 1.56809729783186
35.576001547277 1.38555865615656
35.5920015480369 1.40896813766396
35.6080015487969 1.72950957385888
35.6240015495568 1.69467222503133
35.6400015503168 1.8668626385122
35.6560015510768 1.8400536784449
35.6720015518367 1.64644583067204
35.6880015525967 1.57987879133694
35.7040015533566 1.71680470306371
35.7200015541166 1.82759287864673
35.7360015548766 1.85886310262065
35.7520015556365 1.60907869683454
35.7680015563965 1.93695606105238
35.7840015571564 1.78650912186348
35.8000015579164 1.58729526239995
35.8160015586764 1.83869046602531
35.8320015594363 1.75742746411006
35.8480015601963 1.61543187307244
35.8640015609562 1.98803753492251
35.8800015617162 2.19387848438492
35.8960015624762 2.04256470794299
35.9120015632361 2.08009541125677
35.9280015639961 2.43567943356856
35.944001564756 2.3776793731326
35.960001565516 2.30603963678285
35.9760015662759 2.37361902541136
35.9920015670359 1.93657165989473
36.0080015677959 1.46536816638438
36.0240015685558 1.72917348741629
36.0400015693158 1.55469113849623
36.0560015700757 1.66374810801481
36.0720015708357 1.24695397689623
36.0880015715957 1.34328384951802
36.1040015723556 1.66854918201348
36.1200015731156 1.7205395665522
36.1360015738755 1.54881162991037
36.1520015746355 1.59121940454224
36.1680015753955 1.56620419462398
36.1840015761554 1.47242027434193
36.2000015769154 1.20433410834149
36.2160015776753 1.16006076998162
36.2320015784353 1.20824445910619
36.2480015791953 1.42633588555041
36.2640015799552 1.18702270018889
36.2800015807152 1.28123319602292
36.2960015814751 1.67606355994625
36.3120015822351 1.78077246920303
36.328001582995 1.42287374295246
36.344001583755 1.62308264102296
36.360001584515 1.66166649122388
36.3760015852749 1.60620537030428
36.3920015860349 1.81363125241738
36.4080015867948 2.28633092229134
36.4240015875548 2.90481273398517
36.4400015883148 3.53183871001903
36.4560015890747 4.38174837741702
36.4720015898347 5.94367156072416
36.4880015905946 7.52029543965496
36.5040015913546 7.99471245517047
36.5200015921146 6.93834584763459
36.5360015928745 5.36380842350289
36.5520015936345 4.02272247330729
36.5680015943944 4.44788316861398
36.5840015951544 4.95279008171082
36.6000015959144 4.99810786064127
36.6160015966743 4.00516324702765
36.6320015974343 2.96691958579564
36.6480015981942 2.62247702654501
36.6640015989542 2.2048578193434
36.6800015997142 1.51779361065912
36.6960016004741 1.72333632822609
36.7120016012341 1.9185676236544
36.728001601994 1.62370015622442
36.744001602754 1.65810756216423
36.7600016035139 1.31411027330265
36.7760016042739 1.12923961762957
36.7920016050339 0.97322179890383
36.8080016057938 1.25840959222121
36.8240016065538 1.25321646492107
36.8400016073137 0.867504796650741
36.8560016080737 1.19511685965389
36.8720016088337 1.24153988150562
36.8880016095936 1.05377425659341
36.9040016103536 1.1453801519942
36.9200016111135 1.00725487030802
36.9360016118735 1.06775458845822
36.9520016126335 1.00208876451353
36.9680016133934 1.35081634449829
36.9840016141534 1.43204142432935
37.0000016149133 1.43559336812266
37.0160016156733 1.35328419758689
37.0320016164333 1.25723781352201
37.0480016171932 1.01435822229731
37.0640016179532 1.08514307401662
37.0800016187131 0.829422916504347
37.0960016194731 0.913075350503834
37.1120016202331 1.01210839209061
37.128001620993 0.90888413359427
37.144001621753 1.32837953077562
37.1600016225129 1.21838880663932
37.1760016232729 1.04410129373312
37.1920016240328 1.18653560898524
37.2080016247928 1.4224912677202
37.2240016255528 1.1655820971206
37.2400016263127 1.18138284154483
37.2560016270727 1.03156686985263
37.2720016278326 0.774888194898843
37.2880016285926 0.869445592940681
37.3040016293526 0.921619224748693
37.3200016301125 1.05724813949265
37.3360016308725 0.796132806592679
37.3520016316324 1.09761817019106
37.3680016323924 1.3531169559958
37.3840016331524 1.29028106311595
37.4000016339123 1.4586554927676
37.4160016346723 1.19849232411317
37.4320016354322 1.2487703188144
37.4480016361922 1.08300775059893
37.4640016369522 1.22262714878552
37.4800016377121 1.57242655605268
37.4960016384721 1.52093242956204
37.512001639232 1.5661279371599
37.528001639992 1.72277144789456
37.544001640752 1.74488755440994
37.5600016415119 1.50986459810391
37.5760016422719 1.75168119818075
37.5920016430318 2.22429722139924
37.6080016437918 2.05225680631324
37.6240016445517 2.67729865918126
37.6400016453117 2.73777406651836
37.6560016460717 2.66462046722318
37.6720016468316 2.62089539610974
37.6880016475916 2.49881411334793
37.7040016483515 2.43899306755744
37.7200016491115 2.29028936138966
37.7360016498715 2.44599862478994
37.7520016506314 2.20517229183289
37.7680016513914 1.97736354107444
37.7840016521513 1.87654762278783
37.8000016529113 1.98550854151169
37.8160016536713 1.80682632120317
37.8320016544312 1.59766449894745
37.8480016551912 1.6470268972972
37.8640016559511 1.48017687829191
37.8800016567111 1.68598467769537
37.8960016574711 1.89673394084627
37.912001658231 1.48619025246722
37.928001658991 1.33490908090925
37.9440016597509 1.48029366058273
37.9600016605109 1.31730419156876
37.9760016612708 1.24705058204978
37.9920016620308 1.02627117968982
38.0080016627908 1.17507789934592
38.0240016635507 1.49406933998079
38.0400016643107 1.4960655346742
38.0560016650706 1.1031141301665
38.0720016658306 1.28011595145164
38.0880016665906 1.18924930051208
38.1040016673505 1.2969212806527
38.1200016681105 1.23287806810576
38.1360016688704 1.18228866087054
38.1520016696304 1.33596930206704
38.1680016703904 1.32904486404149
38.1840016711503 1.4119494340242
38.2000016719103 1.03664592397053
38.2160016726702 1.22292012390903
38.2320016734302 1.10277866365394
38.2480016741902 1.31944669715018
38.2640016749501 1.48188411164983
38.2800016757101 1.47418267632034
38.29600167647 1.27462665152243
38.31200167723 1.58792983360038
38.32800167799 2.00558192697171
38.3440016787499 1.8358169871973
38.3600016795099 1.87448973756817
38.3760016802698 2.00855482323303
38.3920016810298 1.6285123216459
38.4080016817897 1.73866695658911
38.4240016825497 1.85384063171813
38.4400016833097 1.96646241878105
38.4560016840696 1.48958385083541
38.4720016848296 1.59468884510813
38.4880016855895 1.79272647429073
38.5040016863495 1.81026305624964
38.5200016871095 1.78519342774757
38.5360016878694 1.8209556739901
38.5520016886294 1.71457709148836
38.5680016893893 1.79780005248668
38.5840016901493 1.56990047883791
38.6000016909093 1.55293212332066
38.6160016916692 1.70768599949809
38.6320016924292 1.465056228126
38.6480016931891 1.54215908094482
38.6640016939491 1.41437863607633
38.6800016947091 1.52170534989719
38.696001695469 1.25333063596361
38.712001696229 1.2856458816748
38.7280016969889 1.29501311740036
38.7440016977489 1.20789209921676
38.7600016985089 1.22958352356117
38.7760016992688 1.16043199209321
38.7920017000288 1.07937748578924
38.8080017007887 0.983828489540956
38.8240017015487 0.863815325320716
38.8400017023086 0.951141548588492
38.8560017030686 1.07852926177603
38.8720017038286 0.859515406584956
38.8880017045885 0.846572916413193
38.9040017053485 1.06715135386917
38.9200017061084 1.12585504958319
38.9360017068684 1.13036895394591
38.9520017076284 0.833458753732513
38.9680017083883 0.838500548451796
38.9840017091483 1.05152497730998
39.0000017099082 0.989855153009434
39.0160017106682 0.881032623310886
39.0320017114282 0.774937430764222
39.0480017121881 0.775661265300974
39.0640017129481 1.09744012395223
39.080001713708 1.3929870058924
39.096001714468 1.11180377899652
39.112001715228 0.827759462804566
39.1280017159879 0.885612199485142
39.1440017167479 1.07456668626272
39.1600017175078 0.976943869938398
39.1760017182678 0.945833546950197
39.1920017190278 0.979741378104017
39.2080017197877 1.0759582468314
39.2240017205477 1.3990795017386
39.2400017213076 1.28915956141147
39.2560017220676 1.27542680646738
39.2720017228275 1.55744242277019
39.2880017235875 1.65014705605443
39.3040017243475 1.35997968910009
39.3200017251074 1.62081172032689
39.3360017258674 1.93699406408327
39.3520017266273 2.29738293883567
39.3680017273873 2.9910151533217
39.3840017281473 3.51095414422179
39.4000017289072 4.99156425430213
39.4160017296672 6.06554864907976
39.4320017304271 5.96124849630252
39.4480017311871 4.33456635317664
39.4640017319471 3.41569279683656
39.480001732707 2.8860150685853
39.496001733467 3.10956969403084
39.5120017342269 3.63741758592619
39.5280017349869 3.45289359146869
39.5440017357469 2.6594463871746
39.5600017365068 2.05234246474484
39.5760017372668 1.43223559998056
39.5920017380267 0.689157897887364
39.6080017387867 0.797035890522659
39.6240017395466 0.96571729041788
39.6400017403066 0.837847942188027
39.6560017410666 0.872710481081753
39.6720017418265 0.393803465661559
39.6880017425865 0.327281586038717
39.7040017433464 0.418423275203292
39.7200017441064 0.352660689077436
39.7360017448664 0.377966433116351
39.7520017456263 0.291851186445124
39.7680017463863 0.55744356604565
39.7840017471462 0.36162267065715
39.8000017479062 0.591504064416784
39.8160017486662 0.317997897322355
39.8320017494261 0.294270253228867
39.8480017501861 0.78520682276653
39.864001750946 0.716195488672964
39.880001751706 0.774525492633218
39.896001752466 0.59513094516316
39.9120017532259 0.748979597550434
39.9280017539859 0.71726443114061
39.9440017547458 0.350972520517845
39.9600017555058 0.636547092102662
39.9760017562658 0.661160405484853
39.9920017570257 0.563558939615589
