'Id: "" Comment: "" Operator: "Lab Manager" Anode: "Cu" Scantype: "Locked Coupled" TimePerStep: "157.8621" 
3 1.81458501253723
3.01600000075996 1.62265141241718
3.03200000151992 1.58241112890176
3.04800000227988 1.13747769131727
3.06400000303984 1.43634083833131
3.0800000037998 1.39122710823541
3.09600000455976 0.985871193687581
3.11200000531971 1.1237387957326
3.12800000607967 0.982712205489365
3.14400000683963 0.97382851050074
3.16000000759959 1.03989357767784
3.17600000835955 0.744033024570642
3.19200000911951 0.0875490670677568
3.20800000987947 0.862939033580281
3.22400001063943 1.18324059004656
3.24000001139939 0.765284167787224
3.25600001215935 0.680809325324857
3.27200001291931 0.761402110660784
3.28800001367927 0.282914688994092
3.30400001443923 0.921891838962194
3.32000001519918 0.958957704735964
3.33600001595914 1.14044043827096
3.3520000167191 0.133454348436603
3.36800001747906 0.313287874527523
3.38400001823902 0.498315449768848
3.40000001899898 0.465792720554957
3.41600001975894 1.52578561188954
3.4320000205189 1.05555039797451
3.44800002127886 0.923648758251831
3.46400002203882 0.739447776412758
3.48000002279878 0.464130773791402
3.49600002355874 0.873674730989228
3.5120000243187 1.04177489081755
3.52800002507865 1.00678767027464
3.54400002583861 0.488420990468105
3.56000002659857 0.493112466675443
3.57600002735853 0.417663966384991
3.59200002811849 0.692796667325839
3.60800002887845 0.735671028786586
3.62400002963841 0.456443023586635
3.64000003039837 0.628940918056744
3.65600003115833 1.19414977214717
3.67200003191829 0.992814587584336
3.68800003267825 1.00527774308927
3.70400003343821 0.629521973931697
3.72000003419816 0.765473288170741
3.73600003495812 0.273983202522119
3.75200003571808 0.392029419452319
3.76800003647804 0.822144682404369
3.784000037238 0.577197091940805
3.80000003799796 0.977076906368643
3.81600003875792 0.683412729222605
3.83200003951788 0.419006532331684
3.84800004027784 0.176003099237819
3.8640000410378 0.607312503204279
3.88000004179776 0.449475575980946
3.89600004255772 0.721266233610452
3.91200004331768 0.895140810128714
3.92800004407763 1.25085171278259
3.94400004483759 0.894811105271083
3.96000004559755 0.322318420292573
3.97600004635751 0.516603279002377
3.99200004711747 0.886224934500623
4.00800004787743 0.749165435125564
4.02400004863739 0.467699638836498
4.04000004939735 0.888118454677466
4.05600005015731 0.467106769627387
4.07200005091727 0.756052153207255
4.08800005167723 0.596808608948242
4.10400005243719 0.408279534114753
4.12000005319715 0.6570032084124
4.1360000539571 0.414052598309718
4.15200005471706 0.509727788198793
4.16800005547702 0.466426611983669
4.18400005623698 0.526448993886047
4.20000005699694 0.87777355504184
4.2160000577569 0.57923242889184
4.23200005851686 0.64583222945763
4.24800005927682 0.17998460872627
4.26400006003678 0.512668832123923
4.28000006079674 0.984048868464074
4.2960000615567 0.968660814620145
4.31200006231666 0.72988501179668
4.32800006307662 0.950097145368675
4.34400006383657 0.627058534053903
4.36000006459653 0.399430576755718
4.37600006535649 0.373417536891948
4.39200006611645 0.48723088596377
4.40800006687641 0.607875658902531
4.42400006763637 0.94077427089192
4.44000006839633 0.774933427399164
4.45600006915629 0.543950241608306
4.47200006991625 0.806050805345818
4.48800007067621 1.11589463534027
4.50400007143617 0.78154534126727
4.52000007219613 0.727543050255003
4.53600007295609 0.568834173566298
4.55200007371604 0.291411277286352
4.568000074476 0.208386105841818
4.58400007523596 0.801557679139439
4.60000007599592 0.793735876056674
4.61600007675588 0.61448023807443
4.63200007751584 0.889695418896775
4.6480000782758 0.842739147605789
4.66400007903576 0.629582051786503
4.68000007979572 0.868323526579177
4.69600008055568 1.07239246584864
4.71200008131564 0.925090005317484
4.7280000820756 0.736056455699249
4.74400008283556 0.672466373599894
4.76000008359551 0.391998669670347
4.77600008435547 0.361535612694762
4.79200008511543 0.573326084272692
4.80800008587539 0.462864391408715
4.82400008663535 0.810864871997639
4.84000008739531 0.371977355315845
4.85600008815527 0.300773595648321
4.87200008891523 0.558667721285309
4.88800008967519 0.937024594554318
4.90400009043515 1.07242198433496
4.92000009119511 0.707115427142162
4.93600009195507 0.479812235857921
4.95200009271502 0.0910666890069241
4.96800009347498 1.01285111948259
4.98400009423494 0.635097896938928
5.0000000949949 1.03820502184275
5.01600009575486 0.227146403728993
5.03200009651482 0.484828253558364
5.04800009727478 0.967338996044706
5.06400009803474 1.01149085847682
5.0800000987947 1.08519349354095
5.09600009955466 0.914244901880654
5.11200010031462 0.621497973432062
5.12800010107458 0.6548627341359
5.14400010183454 0.458528192386805
5.16000010259449 0.425536426651229
5.17600010335445 1.20258582883201
5.19200010411441 0.870714810912499
5.20800010487437 0.560032567315515
5.22400010563433 0.85531123328933
5.24000010639429 0.713058295113289
5.25600010715425 0.334320355205254
5.27200010791421 0.745059585586681
5.28800010867417 0.549405065283961
5.30400010943413 0.490391341605102
5.32000011019409 0.660395900594176
5.33600011095405 0.974588878395021
5.35200011171401 0.797353377691342
5.36800011247396 0.735976327809418
5.38400011323392 0.739942883072729
5.40000011399388 1.20980388757988
5.41600011475384 1.01036118766238
5.4320001155138 1.09497785620831
5.44800011627376 0.511147970615653
5.46400011703372 0.712108081238062
5.48000011779368 0.709848356760496
5.49600011855364 0.57212514048609
5.5120001193136 0.889179760028474
5.52800012007356 0.709082681916856
5.54400012083352 1.08875509864426
5.56000012159348 0.617540372497089
5.57600012235343 0.699587846021965
5.59200012311339 0.480917794656309
5.60800012387335 0.955519641742013
5.62400012463331 0.729742843321127
5.64000012539327 1.05963089895207
5.65600012615323 0.783629229247664
5.67200012691319 0.535225071397889
5.68800012767315 0.764720815511239
5.70400012843311 0.677388399962599
5.72000012919307 0.765118437243405
5.73600012995303 0.807230361175808
5.75200013071299 0.234016397310869
5.76800013147295 1.01719133328774
5.7840001322329 1.50408716240537
5.80000013299286 0.876585563341308
5.81600013375282 1.08334480240853
5.83200013451278 0.98631904040416
5.84800013527274 0.928487017839204
5.8640001360327 0.866154960033874
5.88000013679266 0.561632619990853
5.89600013755262 1.00653934926519
5.91200013831258 1.29594015903238
5.92800013907254 0.923653350735764
5.9440001398325 0.75010241936733
5.96000014059246 1.00730449839169
5.97600014135242 1.47243011399322
5.99200014211237 1.64600365043549
6.00800014287233 1.59072395200396
6.02400014363229 1.51304373627793
6.04000014439225 0.943256609243869
6.05600014515221 1.18375235358597
6.07200014591217 1.14908096872573
6.08800014667213 1.35517153827499
6.10400014743209 1.54848034411398
6.12000014819205 1.41728956759166
6.13600014895201 1.58744399175817
6.15200014971197 1.71412178702678
6.16800015047192 1.37091474825597
6.18400015123188 1.40460835853404
6.20000015199184 1.78897656447065
6.2160001527518 1.66762098818808
6.23200015351176 1.51444569198548
6.24800015427172 1.6951250081665
6.26400015503168 2.08488439627175
6.28000015579164 1.70395310010356
6.2960001565516 1.7456437695397
6.31200015731156 1.69025450041513
6.32800015807152 1.89461196849991
6.34400015883148 1.8414134828118
6.36000015959144 2.09629236913797
6.37600016035139 2.10367018073917
6.39200016111135 1.55617905499797
6.40800016187131 1.96363930799302
6.42400016263127 1.3125107875471
6.44000016339123 1.72354845718957
6.45600016415119 1.57300598575106
6.47200016491115 1.97851259107467
6.48800016567111 2.03152591590109
6.50400016643107 2.1888826345826
6.52000016719103 1.99296575761401
6.53600016795099 2.04521719114568
6.55200016871095 2.19519015702991
6.56800016947091 2.1459123241178
6.58400017023086 2.18490908346608
6.60000017099082 1.99522603111958
6.61600017175078 1.83131552062307
6.63200017251074 2.26613056123602
6.6480001732707 2.36608347252148
6.66400017403066 2.05930470097741
6.68000017479062 1.96001597524404
6.69600017555058 2.12364314622639
6.71200017631054 2.61266381392509
6.7280001770705 2.64984139551291
6.74400017783046 2.65820074497381
6.76000017859042 2.64767897289239
6.77600017935038 2.18501886926404
6.79200018011033 1.68311235761568
6.80800018087029 1.93859983134593
6.82400018163025 2.30138117623573
6.84000018239021 2.44055676313892
6.85600018315017 2.78055267192453
6.87200018391013 3.13480349908677
6.88800018467009 2.56004621064895
6.90400018543005 2.58659846843264
6.92000018619001 2.57544098145573
6.93600018694997 2.14586701608579
6.95200018770993 2.10714228545273
6.96800018846989 2.34041863063655
6.98400018922985 2.05806818179825
7.0000001899898 2.23984603515062
7.01600019074976 2.72631998390787
7.03200019150972 2.53375291817119
7.04800019226968 2.46254317741693
7.06400019302964 2.54816748988857
7.0800001937896 2.34538607468052
7.09600019454956 2.38663835203923
7.11200019530952 2.20279149846743
7.12800019606948 2.49371531600668
7.14400019682944 2.62866707409836
7.1600001975894 2.77376109786699
7.17600019834936 2.39427959071871
7.19200019910931 2.0611327324822
7.20800019986927 1.98330227739172
7.22400020062923 2.56988981556507
7.24000020138919 1.93130456471301
7.25600020214915 2.26040302410857
7.27200020290911 2.32880171833603
7.28800020366907 2.09129713881386
7.30400020442903 1.7767418069708
7.32000020518899 2.30119883295441
7.33600020594895 2.11301996527948
7.35200020670891 2.07985388871658
7.36800020746887 2.00990692282912
7.38400020822883 2.0207327172257
7.40000020898878 2.17793095008355
7.41600020974874 2.61601277017927
7.4320002105087 2.302766373268
7.44800021126866 2.0677190522228
7.46400021202862 2.07569519658739
7.48000021278858 2.13033841022594
7.49600021354854 2.18657035487889
7.5120002143085 2.27532716388321
7.52800021506846 2.15563255486715
7.54400021582842 1.81648749030567
7.56000021658838 1.60783590803387
7.57600021734834 1.98356038201771
7.5920002181083 2.0782438659354
7.60800021886825 1.86719851530503
7.62400021962821 1.76668336395963
7.64000022038817 1.89491777211046
7.65600022114813 1.85717509534117
7.67200022190809 2.38361387717679
7.68800022266805 2.16456727499373
7.70400022342801 1.88110170386345
7.72000022418797 1.47192838355718
7.73600022494793 1.57247641001817
7.75200022570789 2.00827095668693
7.76800022646785 2.13461732325107
7.78400022722781 2.37812843054946
7.80000022798777 2.13606272660173
7.81600022874772 1.9230784692728
7.83200022950768 2.07361494497965
7.84800023026764 1.96636500599125
7.8640002310276 1.90445141798323
7.88000023178756 2.10849924554107
7.89600023254752 2.07742535903977
7.91200023330748 1.97364103232127
7.92800023406744 1.62038883201694
7.9440002348274 1.42456467388813
7.96000023558736 1.6299130411372
7.97600023634732 1.92350213808529
7.99200023710728 2.33102450800346
8.00800023786724 1.99996633468077
8.0240002386272 1.62677037255899
8.04000023938715 1.70623895983851
8.05600024014711 1.51437849837587
8.07200024090707 1.77071679730275
8.08800024166703 1.91341706349696
8.10400024242699 1.84805117838421
8.12000024318695 2.03492626339456
8.13600024394691 1.91998599196225
8.15200024470687 1.29782836953467
8.16800024546683 1.90271934887027
8.18400024622679 2.14237541552917
8.20000024698675 1.70161068824267
8.21600024774671 2.30043301440097
8.23200024850667 2.01902046148201
8.24800024926662 1.77546473486729
8.26400025002658 1.67454060318131
8.28000025078654 1.59631268132035
8.2960002515465 2.06259000419471
8.31200025230646 2.09286087497262
8.32800025306642 1.73336170076261
8.34400025382638 2.00136934340814
8.36000025458634 1.51209514729522
8.3760002553463 1.61106227462296
8.39200025610626 1.52638915990864
8.40800025686622 1.47469971199783
8.42400025762618 1.6874518485754
8.44000025838614 1.44149788850555
8.45600025914609 1.74838514299588
8.47200025990605 1.45734140204548
8.48800026066601 1.86039455802723
8.50400026142597 1.5702520417924
8.52000026218593 1.83124281580543
8.53600026294589 1.59947366712541
8.55200026370585 1.42254701584926
8.56800026446581 1.66667077378794
8.58400026522577 1.83252772208034
8.60000026598573 1.74999514705765
8.61600026674569 1.6167608302256
8.63200026750565 1.6824986836488
8.6480002682656 1.83875822590538
8.66400026902556 2.20430618101783
8.68000026978552 1.88792428942779
8.69600027054548 2.24682694944981
8.71200027130544 2.13416400085141
8.7280002720654 2.57962974022692
8.74400027282536 2.29705182667549
8.76000027358532 2.47317524809121
8.77600027434528 2.71913424088088
8.79200027510524 2.58278849549226
8.8080002758652 2.92600509517553
8.82400027662516 2.65057521468255
8.84000027738512 2.8104495159899
8.85600027814507 2.75867409213124
8.87200027890503 2.29021931478043
8.88800027966499 1.91256133560376
8.90400028042495 1.46033498039118
8.92000028118491 1.54768195422042
8.93600028194487 1.2549871074587
8.95200028270483 0.874095401314877
8.96800028346479 0.909758079106446
8.98400028422475 1.26213747599
9.00000028498471 0.860060726573822
9.01600028574467 1.04283762650732
9.03200028650463 1.07805152258328
9.04800028726459 0.900515452066218
9.06400028802454 0.764160852542663
9.0800002887845 0.842721270734692
9.09600028954446 0.906146684168762
9.11200029030442 0.998284272401364
9.12800029106438 0.612554318380004
9.14400029182434 0.49906344443596
9.1600002925843 0.915374297148942
9.17600029334426 1.22647373527617
9.19200029410422 0.899213389998918
9.20800029486418 0.90240132907039
9.22400029562414 1.02352145840225
9.24000029638409 1.05570111691953
9.25600029714405 0.744952694121233
9.27200029790401 0.905347895821249
9.28800029866397 0.707839340687419
9.30400029942393 0.821470572473626
9.32000030018389 0.527011010652187
9.33600030094385 0.411978458477895
9.35200030170381 0.246659126220065
9.36800030246377 0.60817710637629
9.38400030322373 0.918375646911009
9.40000030398369 0.779657245618624
9.41600030474365 0.597567581736831
9.43200030550361 0.839909459598474
9.44800030626356 0.851404135196304
9.46400030702352 0.896730805695276
9.48000030778348 0.567222339611853
9.49600030854344 0.238782328858308
9.5120003093034 0.905288135203319
9.52800031006336 0.952062848114732
9.54400031082332 0.665047812638958
9.56000031158328 0.533631826272504
9.57600031234324 0.660447781386537
9.5920003131032 0.583881438795013
9.60800031386316 0.521661669190772
9.62400031462312 0.409974648104264
9.64000031538307 0.542160575252625
9.65600031614303 0.578975432986542
9.67200031690299 0.365179005129567
9.68800031766295 0.4776513442309
9.70400031842291 0.636200570134566
9.72000031918287 0.485408125214171
9.73600031994283 0.789178711046599
9.75200032070279 0.579931279863859
9.76800032146275 0.890928689646779
9.78400032222271 0.827454384660809
9.80000032298267 0.700067268485169
9.81600032374263 0.553036132161964
9.83200032450259 0.30136762975221
9.84800032526254 0.360222773325468
9.8640003260225 0.649835205259496
9.88000032678246 0.739920774710512
9.89600032754242 0.589256104825886
9.91200032830238 0.662123136477236
9.92800032906234 0.651607169338222
9.9440003298223 0.881571626478834
9.96000033058226 1.16346222411922
9.97600033134222 0.743711489536327
9.99200033210218 0.834861333931599
10.0080003328621 0.415237244440206
10.0240003336221 0.393049139362887
10.0400003343821 0.356453605860207
10.056000335142 0.698919736588492
10.072000335902 0.492936306508831
10.0880003366619 0.583257337675054
10.1040003374219 0.448025838522113
10.1200003381819 0.564163835944546
10.1360003389418 0.650919273802886
10.1520003397018 0.802119790843754
10.1680003404617 0.854404711443911
10.1840003412217 0.429633647956816
10.2000003419816 0.360807935723997
10.2160003427416 0.717436910240721
10.2320003435016 0.721257647606132
10.2480003442615 0.636227884269246
10.2640003450215 0.619828545697658
10.2800003457814 0.621330265371125
10.2960003465414 0.649981745274253
10.3120003473014 0.626336529184183
10.3280003480613 0.703671571027296
10.3440003488213 0.62752836480427
10.3600003495812 0.509831574788745
10.3760003503412 0.622573154554345
10.3920003511012 0.620625344539381
10.4080003518611 0.572185807640034
10.4240003526211 0.489162003526653
10.440000353381 0.50724276058453
10.456000354141 0.594384657649666
10.472000354901 0.506196065666975
10.4880003556609 0.845984399472279
10.5040003564209 0.492052174201088
10.5200003571808 0.271279763677319
10.5360003579408 0.566857630061586
10.5520003587008 0.58703736929049
10.5680003594607 0.610578774804363
10.5840003602207 0.710858032411613
10.6000003609806 0.789599343242966
10.6160003617406 0.733157270372216
10.6320003625005 0.390710433630829
10.6480003632605 0.584921913298441
10.6640003640205 0.646843078434447
10.6800003647804 0.684389284949306
10.6960003655404 0.62232413401501
10.7120003663003 0.526216563260853
10.7280003670603 0.777923366381545
10.7440003678203 0.479527883000092
10.7600003685802 0.338092505939645
10.7760003693402 0.591079129864324
10.7920003701001 1.13380177461333
10.8080003708601 0.437549463146004
10.8240003716201 0.258756136831234
10.84000037238 0.554454398708481
10.85600037314 0.348436453445411
10.8720003738999 0.360804847297594
10.8880003746599 0.872395868383995
10.9040003754199 0.677690474970099
10.9200003761798 0.4941741863794
10.9360003769398 0.56223123479055
10.9520003776997 0.710795747738233
10.9680003784597 0.595728177050514
10.9840003792196 0.892490343098835
11.0000003799796 0.707794635439315
11.0160003807396 0.709961621977254
11.0320003814995 0.90878169990787
11.0480003822595 0.748133832537304
11.0640003830194 0.769919374125099
11.0800003837794 0.938068061266708
11.0960003845394 0.727182196358223
11.1120003852993 0.548884859846893
11.1280003860593 0.180032829204789
11.1440003868192 0.566057934347336
11.1600003875792 0.608734192114566
11.1760003883392 0.443183394641581
11.1920003890991 0.934443489015511
11.2080003898591 0.545719456725855
11.224000390619 0.822240563370444
11.240000391379 0.619586141759791
11.256000392139 0.801077504788474
11.2720003928989 0.79938947687052
11.2880003936589 0.578486696405857
11.3040003944188 0.809256623677546
11.3200003951788 0.86088434449257
11.3360003959388 1.02338010113431
11.3520003966987 1.09747950367807
11.3680003974587 1.3094410993825
11.3840003982186 1.11071328364257
11.4000003989786 0.813451693738827
11.4160003997385 0.812708241044989
11.4320004004985 1.31156770395941
11.4480004012585 1.29488301390275
11.4640004020184 1.52719539280545
11.4800004027784 1.70457405869363
11.4960004035383 1.48110239805443
11.5120004042983 1.07085181661617
11.5280004050583 1.59804688483167
11.5440004058182 2.05893089294414
11.5600004065782 2.16268425082257
11.5760004073381 2.98232666938774
11.5920004080981 3.45025442910069
11.6080004088581 3.59585957939167
11.624000409618 3.04387913644337
11.640000410378 2.02357143322735
11.6560004111379 1.64856430603186
11.6720004118979 1.702451057199
11.6880004126579 1.15872557387732
11.7040004134178 1.39733461207831
11.7200004141778 1.108774893129
11.7360004149377 1.13933684123084
11.7520004156977 1.24255050768343
11.7680004164577 1.6839349974709
11.7840004172176 1.29766974169414
11.8000004179776 1.45068490129412
11.8160004187375 1.39352896796964
11.8320004194975 1.34024664169978
11.8480004202574 1.16208259178658
11.8640004210174 1.62506621290889
11.8800004217774 1.51239173965777
11.8960004225373 1.50280137415066
11.9120004232973 1.25932719940826
11.9280004240572 1.5539211817387
11.9440004248172 1.90949016337707
11.9600004255772 1.77168841756131
11.9760004263371 2.07506357331133
11.9920004270971 2.31838102923233
12.008000427857 2.02740589479007
12.024000428617 2.66947102948676
12.040000429377 2.75356173521029
12.0560004301369 2.69227481033951
12.0720004308969 3.03277796732875
12.0880004316568 2.89911648468365
12.1040004324168 2.83253085075131
12.1200004331768 2.85585696180644
12.1360004339367 3.25018348041153
12.1520004346967 3.58232798589986
12.1680004354566 4.08507207875559
12.1840004362166 4.59523284565372
12.2000004369766 4.58609362030207
12.2160004377365 5.10492552451419
12.2320004384965 4.99320408990256
12.2480004392564 6.05836913313255
12.2640004400164 6.73951491772175
12.2800004407763 7.76539877972084
12.2960004415363 8.58146976205362
12.3120004422963 9.46471355456962
12.3280004430562 9.77486565079993
12.3440004438162 9.89053187790545
12.3600004445761 8.49052710068466
12.3760004453361 6.90481276454344
12.3920004460961 5.84526270001745
12.408000446856 4.94333212839206
12.424000447616 4.15615337401505
12.4400004483759 3.70676685286161
12.4560004491359 3.73700434472281
12.4720004498959 2.89091491378429
12.4880004506558 2.91350141192225
12.5040004514158 2.85348692386036
12.5200004521757 2.49684016010149
12.5360004529357 1.95835745788912
12.5520004536957 1.86822526397581
12.5680004544556 1.56655845874312
12.5840004552156 1.5412111418872
12.6000004559755 1.57237686410444
12.6160004567355 1.46581158052519
12.6320004574954 1.55093995012634
12.6480004582554 1.46173952405952
12.6640004590154 1.63846326583326
12.6800004597753 1.47288498379716
12.6960004605353 1.29246538688747
12.7120004612952 1.65902936573827
12.7280004620552 1.23073250185391
12.7440004628152 1.09103674757351
12.7600004635751 0.736379679943551
12.7760004643351 1.2318004724345
12.792000465095 1.34902626656504
12.808000465855 1.14736843982642
12.824000466615 1.33675454910891
12.8400004673749 0.617016910096229
12.8560004681349 0.868686579927228
12.8720004688948 0.849644342352566
12.8880004696548 1.09994938673941
12.9040004704148 0.825027280491076
12.9200004711747 0.996949009897129
12.9360004719347 0.777113811914799
12.9520004726946 0.506053584305325
12.9680004734546 0.472576556026985
12.9840004742146 0.523732727627173
13.0000004749745 0.689293254855997
13.0160004757345 0.669092199808672
13.0320004764944 0.760882655581538
13.0480004772544 0.807113969868726
13.0640004780143 0.750498978996879
13.0800004787743 0.472278719677687
13.0960004795343 0.4961305608474
13.1120004802942 0.593597641495536
13.1280004810542 0.581715537453143
13.1440004818141 0.766872714778196
13.1600004825741 0.598471370781175
13.1760004833341 0.813663301634291
13.192000484094 0.467079961163474
13.208000484854 0.589396482880736
13.2240004856139 0.233118902574171
13.2400004863739 0.537790996983352
13.2560004871339 0.408955363745108
13.2720004878938 0.763952719700262
13.2880004886538 0.80600012522153
13.3040004894137 0.708242215583823
13.3200004901737 0.467657600664323
13.3360004909337 0.810188659776756
13.3520004916936 0.863339398849298
13.3680004924536 0.69733706559815
13.3840004932135 0.76214904167967
13.4000004939735 0.284059735256744
13.4160004947335 0.370621877385574
13.4320004954934 0.61702280873206
13.4480004962534 0.901827096881477
13.4640004970133 0.517036415833338
13.4800004977733 0.561480761263342
13.4960004985332 0.571009673330575
13.5120004992932 0.603351514220878
13.5280005000532 0.81464015830147
13.5440005008131 0.722786955054592
13.5600005015731 0.395185282591707
13.576000502333 0.732484636038624
13.592000503093 0.302517482291437
13.608000503853 0.467689473944487
13.6240005046129 0.750984106147082
13.6400005053729 0.654445742304003
13.6560005061328 0.64005384292193
13.6720005068928 0.748209754598489
13.6880005076528 0.72070902295886
13.7040005084127 0.792041272907091
13.7200005091727 0.645231637013296
13.7360005099326 0.842183558351501
13.7520005106926 0.713914742103057
13.7680005114526 0.482931988071796
13.7840005122125 0
13.8000005129725 0.598876136099539
13.8160005137324 0.904516294284891
13.8320005144924 0.758318382937388
13.8480005152523 1.0810130751605
13.8640005160123 0.992538862790366
13.8800005167723 0.839801194206254
13.8960005175322 0.399610459255343
13.9120005182922 0.483357322760166
13.9280005190521 0.724576335185253
13.9440005198121 0.832376464651295
13.9600005205721 0.467362991539902
13.976000521332 0.983675758281474
13.992000522092 0.838309187172103
14.0080005228519 1.01146341148801
14.0240005236119 1.01226372191601
14.0400005243719 0.195792578932295
14.0560005251318 0.0993075818040081
14.0720005258918 0.473815817869977
14.0880005266517 0.792089153776642
14.1040005274117 0.989977216705195
14.1200005281717 0.630318506629889
14.1360005289316 0.53593204959588
14.1520005296916 0.480531211441694
14.1680005304515 0.789130248890274
14.1840005312115 0.6442585778967
14.2000005319715 0.608917771218466
14.2160005327314 0.4140772108494
14.2320005334914 0.538976404905396
14.2480005342513 0.607415115685692
14.2640005350113 0.502409399855781
14.2800005357712 0.422472651917109
14.2960005365312 0.384594175603813
14.3120005372912 0.982883262353957
14.3280005380511 0.602996773995994
14.3440005388111 0.358292893048378
14.360000539571 0.534539076673084
14.376000540331 0.534897496629652
14.392000541091 0.592747871211577
14.4080005418509 0.81523956855064
14.4240005426109 0.705350975190936
14.4400005433708 0.605396151548454
14.4560005441308 0.540281714183129
14.4720005448908 0.528914410341756
14.4880005456507 0.861489563233153
14.5040005464107 0.931136762040332
14.5200005471706 0.901152193577961
14.5360005479306 0.703976302666121
14.5520005486906 1.2246292246963
14.5680005494505 1.02859930029977
14.5840005502105 1.0023918638729
14.6000005509704 0.730262017125107
14.6160005517304 0.414445053651513
14.6320005524904 0.559273191928009
14.6480005532503 0.75681091997978
14.6640005540103 0.365655249958667
14.6800005547702 0.618863927922584
14.6960005555302 0.5914842873097
14.7120005562901 0.677816419496788
14.7280005570501 0.86096978190104
14.7440005578101 0.774354863942024
14.76000055857 0.274317629883895
14.77600055933 0.362242120265003
14.7920005600899 0.283634769449739
14.8080005608499 0.836743352178277
14.8240005616099 0.650595107749622
14.8400005623698 0.459304347594441
14.8560005631298 0.864915504378407
14.8720005638897 0.507753793500853
14.8880005646497 0.647767901467748
14.9040005654097 0.744546980461335
14.9200005661696 0.651160030494218
14.9360005669296 0.7907990853676
14.9520005676895 0.751027716577593
14.9680005684495 0.626791232765873
14.9840005692095 0.691558734568918
15.0000005699694 0.989048776778969
15.0160005707294 1.01596886475847
15.0320005714893 0.663384380597186
15.0480005722493 0.58140355573968
15.0640005730093 0.649931076453606
15.0800005737692 0.40835866129799
15.0960005745292 0.290137455746058
15.1120005752891 0.543751733511328
15.1280005760491 0.561125005009336
15.144000576809 0.702458898716992
15.160000577569 0.854496823815758
15.176000578329 0.656987064283477
15.1920005790889 0.579230747596268
15.2080005798489 0.769291035702605
15.2240005806088 0.647358088866498
15.2400005813688 0.668535718797552
15.2560005821288 0.69230261091477
15.2720005828887 0.4371498515256
15.2880005836487 0.323239360760836
15.3040005844086 0.741412019912667
15.3200005851686 0.744020617360066
15.3360005859286 0.485267642641412
15.3520005866885 0.608071695379942
15.3680005874485 0.61175519443369
15.3840005882084 0.462927947476948
15.4000005889684 0.406190762155023
15.4160005897284 0.483192074577428
15.4320005904883 0.968524837042732
15.4480005912483 0.743631581002473
15.4640005920082 0.829852572542118
15.4800005927682 0.849627997168088
15.4960005935281 0.442402628713289
15.5120005942881 0.777337485619255
15.5280005950481 0.443276108905982
15.544000595808 0.826040003780552
15.560000596568 1.1078892719041
15.5760005973279 0.986158839542695
15.5920005980879 0.933966979764574
15.6080005988479 1.01835096806724
15.6240005996078 0.793186869938779
15.6400006003678 0.63032443108926
15.6560006011277 0.829340003115147
15.6720006018877 0.601351306078756
15.6880006026477 0.392014088306685
15.7040006034076 0.589401930465555
15.7200006041676 0.443647567348346
15.7360006049275 0.445349319335285
15.7520006056875 0.534375961938348
15.7680006064475 0.950317338435741
15.7840006072074 0.570684918983279
15.8000006079674 0.73546295146652
15.8160006087273 0.297941211526452
15.8320006094873 0.43082555463531
15.8480006102473 0.602080889840685
15.8640006110072 0.927822380830325
15.8800006117672 0.672049026443276
15.8960006125271 0.564775911847335
15.9120006132871 0.439355628427172
15.928000614047 0.503362580466517
15.944000614807 0.484520055846184
15.960000615567 0.757778441952326
15.9760006163269 0.867974960184555
15.9920006170869 0.613704950413578
16.0080006178468 0.353523977528282
16.0240006186068 0.442323113188689
16.0400006193668 0.845756179359805
16.0560006201267 0.727815472729931
16.0720006208867 0.625448850621433
16.0880006216466 0.699445021171385
16.1040006224066 0.490117099169646
16.1200006231666 0.229086324921854
16.1360006239265 0.608798190207417
16.1520006246865 0.410708515637189
16.1680006254464 0.5664741256115
16.1840006262064 0.844362596838304
16.2000006269664 0.947810738855464
16.2160006277263 1.14464419690253
16.2320006284863 0.921294299397137
16.2480006292462 0.709309894771468
16.2640006300062 0.888374122598413
16.2800006307661 0.988604003034418
16.2960006315261 0.569260424771546
16.3120006322861 0.582426180003119
16.328000633046 0.842034602998363
16.344000633806 1.08430150829658
16.3600006345659 0.894555214062875
16.3760006353259 0.741669626324969
16.3920006360859 1.05418110038272
16.4080006368458 0.871640304203886
16.4240006376058 0.643505783583073
16.4400006383657 0.59504824460148
16.4560006391257 0.698298712740086
16.4720006398857 0.553979135387425
16.4880006406456 0.435775321569381
16.5040006414056 0.704122398565462
16.5200006421655 0.923978302798632
16.5360006429255 0.997579242787842
16.5520006436855 0.729157616010674
16.5680006444454 0.701574275342802
16.5840006452054 0.621088334736154
16.6000006459653 0.937565697625719
16.6160006467253 0.577592766797039
16.6320006474853 0.236173724800528
16.6480006482452 0.536689384977941
16.6640006490052 0.962134777407934
16.6800006497651 0.830553708791669
16.6960006505251 0.778401980386294
16.712000651285 0.486812347708637
16.728000652045 0.339554841457471
16.744000652805 0.423694637277618
16.7600006535649 0.719491109896258
16.7760006543249 0.678128781084321
16.7920006550848 0.612037048902674
16.8080006558448 0.684574624687738
16.8240006566048 0.48968436560559
16.8400006573647 0.876349544703487
16.8560006581247 0.839072736089534
16.8720006588846 1.09161820796267
16.8880006596446 0.637004031072998
16.9040006604046 0.648786780161963
16.9200006611645 0.613982537622987
16.9360006619245 0.624132690874895
16.9520006626844 0.563562129072705
16.9680006634444 0.579486559224946
16.9840006642044 0.653925707499395
17.0000006649643 0.717634010887791
17.0160006657243 0.828960688997249
17.0320006664842 0.40930492616006
17.0480006672442 0.516022707320259
17.0640006680042 0.581242344811732
17.0800006687641 0.832389332218784
17.0960006695241 0.681589659566588
17.112000670284 0.501828915806592
17.128000671044 0.843947803639928
17.1440006718039 1.10661953946429
17.1600006725639 1.08680840263184
17.1760006733239 0.586978310590093
17.1920006740838 0.694348515749245
17.2080006748438 0.586061226548269
17.2240006756037 0.71460172471738
17.2400006763637 0.69837935504146
17.2560006771237 0.903496906572284
17.2720006778836 0.746385582636787
17.2880006786436 0.737482646970565
17.3040006794035 1.02153843635142
17.3200006801635 0.990748600174805
17.3360006809235 0.49934103934288
17.3520006816834 0.743257072716443
17.3680006824434 0.811034837040452
17.3840006832033 0.513308633167287
17.4000006839633 0.658986523844122
17.4160006847233 0.352605007529899
17.4320006854832 0.358826097836586
17.4480006862432 0.485540023857539
17.4640006870031 0.647973094598429
17.4800006877631 0.741318509988001
17.4960006885231 0.712211527430032
17.512000689283 1.28782589850869
17.528000690043 1.12929216440429
17.5440006908029 0.991259511251815
17.5600006915629 0.789472324322383
17.5760006923228 1.08421419801093
17.5920006930828 1.39490389152751
17.6080006938428 1.10329747314276
17.6240006946027 0.8244783990145
17.6400006953627 0.80866498929141
17.6560006961226 0.98605947874322
17.6720006968826 1.17058347613522
17.6880006976426 1.01936051749255
17.7040006984025 1.14789602821659
17.7200006991625 0.943587306835311
17.7360006999224 1.16769299840681
17.7520007006824 1.08528937171115
17.7680007014424 1.3373066912323
17.7840007022023 1.15307130813576
17.8000007029623 0.920651402333536
17.8160007037222 1.23920666386656
17.8320007044822 1.48916122642386
17.8480007052422 0.989958132213069
17.8640007060021 0.877129671480663
17.8800007067621 0.721457039280212
17.896000707522 0.699119861188135
17.912000708282 0.775771000113078
17.9280007090419 0.757664220679974
17.9440007098019 1.06423099879383
17.9600007105619 1.18223098796231
17.9760007113218 0.899011440151468
17.9920007120818 0.907251124366018
18.0080007128417 0.671368545714774
18.0240007136017 0.604352504525292
18.0400007143617 0.935193640151185
18.0560007151216 0.861595862650919
18.0720007158816 0.571976315007258
18.0880007166415 0.774674312347515
18.1040007174015 0.863825924625106
18.1200007181615 1.10997421742563
18.1360007189214 0.972505087724779
18.1520007196814 1.01803262005613
18.1680007204413 0.859011575368889
18.1840007212013 0.524146001007094
18.2000007219613 0.934360716239372
18.2160007227212 0.883459143310651
18.2320007234812 1.08460077780517
18.2480007242411 1.03508138910376
18.2640007250011 1.01370120552624
18.2800007257611 1.17317729514834
18.296000726521 0.796579015935214
18.312000727281 0.624848720464964
18.3280007280409 1.14367435452158
18.3440007288009 0.82024464806559
18.3600007295608 1.05770951362089
18.3760007303208 0.644081470872421
18.3920007310808 0.435838755587782
18.4080007318407 0.717056284961997
18.4240007326007 0.814609161710487
18.4400007333606 0.803338922493814
18.4560007341206 0.591360443984186
18.4720007348806 0.726085088210628
18.4880007356405 0.499113463210501
18.5040007364005 0.433486051928938
18.5200007371604 0.754228407117776
18.5360007379204 0.654909661357775
18.5520007386804 0.748284965007432
18.5680007394403 0.877100411625141
18.5840007402003 0.968326966512834
18.6000007409602 0.850661032035212
18.6160007417202 0.868322048673829
18.6320007424802 0.759848186936411
18.6480007432401 0.804898854137828
18.6640007440001 0.627039001788482
18.68000074476 0.764445315159388
18.69600074552 0.98474680312357
18.71200074628 0.845854362844029
18.7280007470399 0.68070895928719
18.7440007477999 0.859316266198705
18.7600007485598 0.793657723535148
18.7760007493198 1.03162384006308
18.7920007500797 1.18898724679118
18.8080007508397 0.865794854094786
18.8240007515997 0.572119285570739
18.8400007523596 0.42229181901963
18.8560007531196 0.662344950831179
18.8720007538795 1.00308039626789
18.8880007546395 0.966672859801942
18.9040007553995 0.518633905787519
18.9200007561594 0.536703239369937
18.9360007569194 0.692022669436336
18.9520007576793 0.574121695167078
18.9680007584393 0.982437856753285
18.9840007591993 1.00172677301783
19.0000007599592 0.68373490602389
19.0160007607192 0.674225849855188
19.0320007614791 0.881249847785408
19.0480007622391 0.784142284433382
19.0640007629991 0.489977066280274
19.080000763759 0.829846428239945
19.096000764519 0.527514381056979
19.1120007652789 0.799261661210233
19.1280007660389 0.885957639689912
19.1440007667989 0.572143645473639
19.1600007675588 0.6322679141133
19.1760007683188 0.827418036738575
19.1920007690787 0.925658133832519
19.2080007698387 1.11992914143959
19.2240007705986 0.768936945930041
19.2400007713586 1.06591480741333
19.2560007721186 1.35507391866409
19.2720007728785 0.873032260820448
19.2880007736385 0.798540866027666
19.3040007743984 0.751151488688817
19.3200007751584 0.910659709667177
19.3360007759184 0.955044941158536
19.3520007766783 1.08137721144801
19.3680007774383 1.50517368079301
19.3840007781982 1.04747894532799
19.4000007789582 1.16830120178426
19.4160007797182 1.18789850241876
19.4320007804781 1.18394158192128
19.4480007812381 1.53672983998112
19.464000781998 1.71165848126615
19.480000782758 1.44416955939399
19.496000783518 1.45248537585558
19.5120007842779 1.77043011291405
19.5280007850379 2.20378528554984
19.5440007857978 2.16043341082863
19.5600007865578 2.33480334829093
19.5760007873177 2.81845961582311
19.5920007880777 2.9269718294271
19.6080007888377 2.97117142954783
19.6240007895976 3.1337420821148
19.6400007903576 3.33978454092299
19.6560007911175 3.94327250494981
19.6720007918775 4.06895929762124
19.6880007926375 4.28085212069125
19.7040007933974 4.66364971498719
19.7200007941574 5.38887982726753
19.7360007949173 6.2104773849105
19.7520007956773 6.62095479293454
19.7680007964373 6.84916835737969
19.7840007971972 6.8697558155753
19.8000007979572 7.29080449404059
19.8160007987171 7.13668626088719
19.8320007994771 7.24112427606564
19.8480008002371 7.61444310354246
19.864000800997 7.67910818200738
19.880000801757 8.00638939655933
19.8960008025169 7.86777341926287
19.9120008032769 7.26569771702333
19.9280008040369 7.28929564109812
19.9440008047968 6.9169015582297
19.9600008055568 6.67860811144231
19.9760008063167 6.63140921875646
19.9920008070767 6.21210678252625
20.0080008078366 5.89749323078949
20.0240008085966 6.15741389697434
20.0400008093566 5.75485758168238
20.0560008101165 5.2629319984496
20.0720008108765 5.27849660516975
20.0880008116364 5.56882561614008
20.1040008123964 5.26147271210773
20.1200008131564 5.23657935370099
20.1360008139163 5.34420258031871
20.1520008146763 5.22080631317352
20.1680008154362 5.38763966785824
20.1840008161962 5.23638046382469
20.2000008169562 4.92611166341376
20.2160008177161 4.94497311885651
20.2320008184761 4.71987143724946
20.248000819236 4.69295499392379
20.264000819996 4.88390622005484
20.280000820756 5.06425474688973
20.2960008215159 4.17242630372657
20.3120008222759 4.74881957369866
20.3280008230358 4.80622905932672
20.3440008237958 4.67194172913231
20.3600008245558 4.20675676219432
20.3760008253157 4.25545794428954
20.3920008260757 4.55429019148699
20.4080008268356 4.18102396879684
20.4240008275956 4.10674333639682
20.4400008283555 4.26161922648936
20.4560008291155 4.32244932767997
20.4720008298755 4.44511168035435
20.4880008306354 4.31234245151478
20.5040008313954 4.20388283024366
20.5200008321553 4.2771609725733
20.5360008329153 4.38303974634958
20.5520008336753 4.49569697526539
20.5680008344352 4.34874322904577
20.5840008351952 4.10098649476596
20.6000008359551 4.12837041998378
20.6160008367151 4.53984151349962
20.6320008374751 4.24670792783223
20.648000838235 4.54425907714358
20.664000838995 4.93617717231639
20.6800008397549 5.54363885188594
20.6960008405149 5.94654459297645
20.7120008412749 6.20050069721502
20.7280008420348 7.15568156277624
20.7440008427948 8.08568254962467
20.7600008435547 9.99494495738556
20.7760008443147 12.6547606150287
20.7920008450747 15.4276662549706
20.8080008458346 19.9508056174562
20.8240008465946 22.3412316695905
20.8400008473545 20.4630989993182
20.8560008481145 16.7334638094546
20.8720008488744 14.3774815722091
20.8880008496344 11.6852633259985
20.9040008503944 9.3827814407183
20.9200008511543 6.84114110941785
20.9360008519143 5.51989808935515
20.9520008526742 4.56695214677072
20.9680008534342 4.06231118432129
20.9840008541942 4.63992379779228
21.0000008549541 4.18889679406804
21.0160008557141 3.58811004309352
21.032000856474 3.8502734894627
21.048000857234 3.86285745560424
21.064000857994 3.6371774548322
21.0800008587539 3.60362775965859
21.0960008595139 3.13108411232291
21.1120008602738 3.13800229220106
21.1280008610338 3.78129571779194
21.1440008617938 3.53964058712328
21.1600008625537 3.29083201875213
21.1760008633137 3.07811557733909
21.1920008640736 3.32694866433787
21.2080008648336 3.40884249644579
21.2240008655935 3.34664506461931
21.2400008663535 2.94139277437486
21.2560008671135 2.96830329970929
21.2720008678734 3.07845181066883
21.2880008686334 2.88131777231688
21.3040008693933 2.77104196198711
21.3200008701533 3.0453169241381
21.3360008709133 3.12394618273162
21.3520008716732 3.54576478397155
21.3680008724332 3.25097374976504
21.3840008731931 3.00785776571013
21.4000008739531 3.22630137734111
21.4160008747131 3.33668665441723
21.432000875473 3.43734156472911
21.448000876233 3.31424350890776
21.4640008769929 3.16513064368342
21.4800008777529 3.25638561712738
21.4960008785129 3.2458226198323
21.5120008792728 3.07153622724754
21.5280008800328 3.27210121242228
21.5440008807927 3.29231158956832
21.5600008815527 2.91493244412974
21.5760008823127 2.80758760659738
21.5920008830726 2.67973481647917
21.6080008838326 2.81652434116235
21.6240008845925 2.75242943528954
21.6400008853525 2.87309342140455
21.6560008861124 2.34696317269813
21.6720008868724 2.57101907046577
21.6880008876324 2.47852220744374
21.7040008883923 2.90289566881094
21.7200008891523 2.63292326704598
21.7360008899122 2.5314367178229
21.7520008906722 2.17155496661159
21.7680008914322 2.08193956937266
21.7840008921921 2.30850559132756
21.8000008929521 2.48820573070791
21.816000893712 2.44614959650227
21.832000894472 2.38769784468173
21.848000895232 2.66882290076997
21.8640008959919 2.0756188774758
21.8800008967519 2.76703141555812
21.8960008975118 2.71252624921364
21.9120008982718 2.90457665947019
21.9280008990318 3.04502021379597
21.9440008997917 2.73336394439388
21.9600009005517 2.2128458914912
21.9760009013116 2.18885090662193
21.9920009020716 2.43006242827983
22.0080009028316 2.48181591788319
22.0240009035915 2.33692714415696
22.0400009043515 2.44922545596884
22.0560009051114 2.38892284592246
22.0720009058714 2.1187519618814
22.0880009066313 2.01135078468788
22.1040009073913 2.00431275595332
22.1200009081513 2.02935548674048
22.1360009089112 1.67401528325258
22.1520009096712 1.94175936079763
22.1680009104311 1.68546981759785
22.1840009111911 1.61151553461865
22.2000009119511 1.81820237091464
22.216000912711 1.59507076817451
22.232000913471 1.82536436884446
22.2480009142309 1.8343768494493
22.2640009149909 2.0037726301649
22.2800009157509 1.92150711080311
22.2960009165108 1.78073694058928
22.3120009172708 1.60004137342735
22.3280009180307 1.69026701806734
22.3440009187907 1.77644642370756
22.3600009195507 1.83476666434291
22.3760009203106 1.92923802183939
22.3920009210706 1.62937383365549
22.4080009218305 1.85680526469163
22.4240009225905 1.74157755813513
22.4400009233504 1.51781811230488
22.4560009241104 1.80225937378933
22.4720009248704 1.57391216544135
22.4880009256303 1.70373231693806
22.5040009263903 1.89244432097302
22.5200009271502 1.64228003054417
22.5360009279102 1.95089450377308
22.5520009286702 1.52170665274137
22.5680009294301 1.83086384262414
22.5840009301901 1.79810009773625
22.60000093095 1.86960801462814
22.61600093171 1.27387686036509
22.63200093247 1.16329202809973
22.6480009332299 1.42236024914287
22.6640009339899 1.82607514651377
22.6800009347498 1.3900179409207
22.6960009355098 1.7046246384201
22.7120009362698 1.65315280748152
22.7280009370297 1.87316703688684
22.7440009377897 1.79711257405261
22.7600009385496 1.74383022690794
22.7760009393096 1.55099762180813
22.7920009400696 1.67089508091277
22.8080009408295 1.48738689384332
22.8240009415895 1.44992505026374
22.8400009423494 1.5574232459136
22.8560009431094 1.74135685046712
22.8720009438693 1.89457700123062
22.8880009446293 1.9970207784806
22.9040009453893 1.4811808238245
22.9200009461492 1.61468261741998
22.9360009469092 1.78798813380798
22.9520009476691 1.60983442173366
22.9680009484291 1.77214905820458
22.9840009491891 1.57148210961295
23.000000949949 1.69533441118319
23.016000950709 1.40589790032529
23.0320009514689 1.48541710435311
23.0480009522289 1.85173486394901
23.0640009529889 1.67282261956206
23.0800009537488 1.45845409522475
23.0960009545088 1.80242737100628
23.1120009552687 1.56921023472161
23.1280009560287 1.40054746171398
23.1440009567887 1.60726110947331
23.1600009575486 1.73510911702049
23.1760009583086 1.69246455568529
23.1920009590685 1.61560269459087
23.2080009598285 1.11614877812402
23.2240009605885 1.40796479912789
23.2400009613484 1.52248653934169
23.2560009621084 1.3631451286501
23.2720009628683 1.31641713671516
23.2880009636283 1.30218093457262
23.3040009643882 1.83649729631912
23.3200009651482 1.47993447778949
23.3360009659082 1.21548669598996
23.3520009666681 1.35901184658169
23.3680009674281 1.60402884888981
23.384000968188 1.3210786610976
23.400000968948 1.58155877869353
23.416000969708 1.49521250192444
23.4320009704679 1.25024538594188
23.4480009712279 1.22869310339807
23.4640009719878 1.37429153512567
23.4800009727478 1.27778807530091
23.4960009735078 1.37381851493946
23.5120009742677 1.50149773952854
23.5280009750277 1.12590709581091
23.5440009757876 1.2931796985631
23.5600009765476 1.32028255565431
23.5760009773076 1.50973656082612
23.5920009780675 1.43892288937507
23.6080009788275 2.01040155123319
23.6240009795874 2.42019951626436
23.6400009803474 1.95570605310628
23.6560009811074 1.40724796258507
23.6720009818673 1.81240166084919
23.6880009826273 1.58478220210361
23.7040009833872 1.38376983351479
23.7200009841472 0.891204030564611
23.7360009849071 1.51283044493309
23.7520009856671 1.29004769705246
23.7680009864271 1.47081170180769
23.784000987187 1.53392089433412
23.800000987947 1.57873292282979
23.8160009887069 1.25796967948325
23.8320009894669 1.41300191935353
23.8480009902269 1.44511162522254
23.8640009909868 1.59954043665797
23.8800009917468 1.45262754529317
23.8960009925067 1.16790780776649
23.9120009932667 1.47276322103759
23.9280009940267 1.53940734638185
23.9440009947866 1.25300245599267
23.9600009955466 1.03063323837889
23.9760009963065 1.36568863541045
23.9920009970665 1.73094029270474
24.0080009978265 1.36491169110368
24.0240009985864 1.35696889409262
24.0400009993464 1.60953442777962
24.0560010001063 1.46500474079322
24.0720010008663 1.52896853034594
24.0880010016262 1.23253521206185
24.1040010023862 1.53901936083746
24.1200010031462 1.56948593027493
24.1360010039061 1.07344378971573
24.1520010046661 1.03639562775026
24.168001005426 1.23879988210929
24.184001006186 1.37397981466962
24.200001006946 1.11264617775727
24.2160010077059 1.05550635129656
24.2320010084659 1.68823523982736
24.2480010092258 1.54374298759585
24.2640010099858 1.28453715451236
24.2800010107458 1.42885856611168
24.2960010115057 1.548503501772
24.3120010122657 1.55251549091406
24.3280010130256 1.61209346467732
24.3440010137856 1.41888984136273
24.3600010145456 1.50584546267898
24.3760010153055 1.38748354659384
24.3920010160655 1.16786101154154
24.4080010168254 1.35856815714595
24.4240010175854 1.33366723595788
24.4400010183454 1.13145507135337
24.4560010191053 1.38560111379257
24.4720010198653 1.50157493185833
24.4880010206252 2.14660476616454
24.5040010213852 1.22937640706645
24.5200010221451 1.4185444734628
24.5360010229051 1.63067962565229
24.5520010236651 1.53515471697381
24.568001024425 1.83319285487767
24.584001025185 1.99746040043185
24.6000010259449 2.1520356657345
24.6160010267049 1.78234769194335
24.6320010274649 1.92489529384189
24.6480010282248 2.14069639514565
24.6640010289848 2.52639506905648
24.6800010297447 2.42764812077482
24.6960010305047 2.38952935909388
24.7120010312647 2.90929330899217
24.7280010320246 3.13195900849204
24.7440010327846 3.65930641092727
24.7600010335445 3.86362921856449
24.7760010343045 4.32342036898303
24.7920010350645 4.46623813420482
24.8080010358244 5.57000892950328
24.8240010365844 6.15140350144317
24.8400010373443 6.04900689586908
24.8560010381043 5.95868321613274
24.8720010388643 5.51844305340747
24.8880010396242 5.29001111610933
24.9040010403842 4.85580847570067
24.9200010411441 4.39673300323364
24.9360010419041 4.31327834190261
24.952001042664 3.72058870479348
24.968001043424 3.4423037098617
24.984001044184 3.45028286560445
25.0000010449439 2.92882047004965
25.0160010457039 2.97432059577096
25.0320010464638 2.94397627442164
25.0480010472238 2.62470876685985
25.0640010479838 2.7108056805763
25.0800010487437 2.7542775437169
25.0960010495037 2.24659687694978
25.1120010502636 2.4428257313329
25.1280010510236 2.32953507953
25.1440010517836 2.16712532268531
25.1600010525435 2.42815137469341
25.1760010533035 2.78976029212162
25.1920010540634 2.30278547304144
25.2080010548234 2.27217783851818
25.2240010555834 2.51641081709466
25.2400010563433 2.91861603428619
25.2560010571033 3.21817174802587
25.2720010578632 3.45232884734608
25.2880010586232 3.12195826236074
25.3040010593832 2.82918327701742
25.3200010601431 2.78049916901028
25.3360010609031 2.49089111522976
25.352001061663 2.06690611398716
25.368001062423 2.20881097294962
25.3840010631829 2.15737138327713
25.4000010639429 2.11560067128125
25.4160010647029 1.79073982277274
25.4320010654628 2.04648244975264
25.4480010662228 1.94085416790695
25.4640010669827 2.07271885137391
25.4800010677427 1.95384886656846
25.4960010685027 1.88982431290515
25.5120010692626 1.43854903688127
25.5280010700226 1.80788355799391
25.5440010707825 1.50809155284752
25.5600010715425 1.45094357709556
25.5760010723025 1.27362701127487
25.5920010730624 1.38792663848198
25.6080010738224 1.36214089381734
25.6240010745823 1.3967000132256
25.6400010753423 1.67118496557529
25.6560010761023 1.45951952610432
25.6720010768622 1.46460640271079
25.6880010776222 1.65427264641964
25.7040010783821 1.1954692249414
25.7200010791421 1.50902044902185
25.736001079902 1.41422040827522
25.752001080662 1.51775378938546
25.768001081422 1.1261083981436
25.7840010821819 1.27143448619454
25.8000010829419 1.55335668733844
25.8160010837018 1.37308537754739
25.8320010844618 1.53615500519912
25.8480010852218 1.44889072249497
25.8640010859817 1.40081180385712
25.8800010867417 1.63310661934994
25.8960010875016 1.45471308806904
25.9120010882616 1.42143377834841
25.9280010890216 1.52648517607334
25.9440010897815 1.35227895227639
25.9600010905415 1.43451245172625
25.9760010913014 1.69865072253274
25.9920010920614 1.61848933017199
26.0080010928214 1.64345821480754
26.0240010935813 1.61468210999104
26.0400010943413 1.42107366064219
26.0560010951012 1.61804202358
26.0720010958612 1.54584906295832
26.0880010966212 1.71068285352814
26.1040010973811 1.45246568062398
26.1200010981411 1.56945767399518
26.136001098901 1.76352175691718
26.152001099661 2.00588778895008
26.1680011004209 1.93586035538859
26.1840011011809 2.08515763505762
26.2000011019409 1.97518444017603
26.2160011027008 2.10250440068525
26.2320011034608 2.13696425213347
26.2480011042207 2.19940842924607
26.2640011049807 2.56797002570913
26.2800011057407 2.83041938412327
26.2960011065006 3.00182137218332
26.3120011072606 3.22634770366305
26.3280011080205 3.38393231786112
26.3440011087805 3.50040319676992
26.3600011095405 3.69906764308647
26.3760011103004 4.35048246405139
26.3920011110604 4.94011800724499
26.4080011118203 5.02429476216354
26.4240011125803 5.73254955566428
26.4400011133403 6.7739297744163
26.4560011141002 8.15839553179144
26.4720011148602 9.84532408839655
26.4880011156201 11.9073561439615
26.5040011163801 15.8990200038508
26.5200011171401 21.8609709266475
26.5360011179 30.5358396257889
26.55200111866 43.5507374632769
26.5680011194199 60.9923689469355
26.5840011201799 79.7584337036947
26.6000011209398 91.2132336334991
26.6160011216998 82.6585693742463
26.6320011224598 64.3514551783136
26.6480011232197 54.651624495275
26.6640011239797 51.9144098284275
26.6800011247396 43.5964090576916
26.6960011254996 28.6560554672174
26.7120011262596 18.0487775510222
26.7280011270195 12.2525629032994
26.7440011277795 9.32520021221833
26.7600011285394 8.08255502148236
26.7760011292994 7.02544927992273
26.7920011300594 5.78194845100211
26.8080011308193 5.59385407070418
26.8240011315793 4.62435450705671
26.8400011323392 4.20192164583044
26.8560011330992 3.62248692880823
26.8720011338592 3.15532868497277
26.8880011346191 3.08757838982343
26.9040011353791 2.28606673944236
26.920001136139 2.38128499769761
26.936001136899 2.06136800586961
26.952001137659 2.24921489081277
26.9680011384189 1.8802497938871
26.9840011391789 1.75436566448224
27.0000011399388 1.84252588132147
27.0160011406988 1.76676084080975
27.0320011414587 2.06572821407477
27.0480011422187 1.7161441810042
27.0640011429787 1.61458637467506
27.0800011437386 1.71576405815132
27.0960011444986 1.48931720923018
27.1120011452585 1.26061805073669
27.1280011460185 1.59943933717436
27.1440011467785 1.56344293918324
27.1600011475384 1.3317243685416
27.1760011482984 1.38700951759689
27.1920011490583 0.981066434861279
27.2080011498183 1.28951661712164
27.2240011505783 1.46422896656658
27.2400011513382 1.32611760868727
27.2560011520982 1.08488621638041
27.2720011528581 1.18779178934785
27.2880011536181 1.35240463562765
27.3040011543781 1.43933603756413
27.320001155138 1.31175266132316
27.336001155898 1.25466370926762
27.3520011566579 1.24427599164407
27.3680011574179 1.19974146014843
27.3840011581778 1.09620359474083
27.4000011589378 1.48889744294727
27.4160011596978 1.34271723644104
27.4320011604577 1.58188998119795
27.4480011612177 1.42291009206824
27.4640011619776 1.34573102146183
27.4800011627376 1.33411551728175
27.4960011634976 1.49106124961067
27.5120011642575 1.22455286908625
27.5280011650175 1.38811991619191
27.5440011657774 1.51056181181704
27.5600011665374 1.28458777159995
27.5760011672974 1.09196965297488
27.5920011680573 1.3104828513893
27.6080011688173 1.51711803012466
27.6240011695772 1.30189939614486
27.6400011703372 1.52423214460259
27.6560011710972 1.37390086724835
27.6720011718571 1.57884092325523
27.6880011726171 1.66339547969793
27.704001173377 1.35003731583382
27.720001174137 1.21628588723014
27.7360011748969 1.26317135032408
27.7520011756569 1.76020511888773
27.7680011764169 1.68826197545911
27.7840011771768 1.37243999908525
27.8000011779368 1.41751024649133
27.8160011786967 1.3657398039368
27.8320011794567 1.5687809476036
27.8480011802167 1.46210319199559
27.8640011809766 1.63737883901946
27.8800011817366 1.53350977206907
27.8960011824965 1.41287722777378
27.9120011832565 1.32130087857339
27.9280011840165 1.48155142368075
27.9440011847764 1.28782664989585
27.9600011855364 1.42543525922354
27.9760011862963 1.38714050208071
27.9920011870563 1.26874486548394
28.0080011878163 1.41336298445892
28.0240011885762 1.16022144313664
28.0400011893362 1.27323524716986
28.0560011900961 1.17076593070819
28.0720011908561 1.11425313310891
28.0880011916161 0.878831542518037
28.104001192376 0.713986772415954
28.120001193136 1.15161811268839
28.1360011938959 0.774756632312454
28.1520011946559 0.977696550329012
28.1680011954158 0.82146692930518
28.1840011961758 0.916956835144572
28.2000011969358 1.04777128930583
28.2160011976957 0.81141585693317
28.2320011984557 0.634061782184024
28.2480011992156 0.773375877689272
28.2640011999756 0.838039567885703
28.2800012007356 0.779440885895931
28.2960012014955 0.755262375988499
28.3120012022555 0.504001473214399
28.3280012030154 0.648161881651904
28.3440012037754 0.96450176599186
28.3600012045354 1.28282551501372
28.3760012052953 0.80362426707043
28.3920012060553 1.13867306885031
28.4080012068152 0.724206320288489
28.4240012075752 0.561305651476584
28.4400012083352 0.770509827857046
28.4560012090951 0.912735273668003
28.4720012098551 0.714634410895167
28.488001210615 0.86891839231364
28.504001211375 0.49142637055609
28.520001212135 0.287837676307391
28.5360012128949 0.660756424655216
28.5520012136549 0.586134345525272
28.5680012144148 0.495182333203317
28.5840012151748 0.484711636278474
28.6000012159347 0.71900116152475
28.6160012166947 0.730270468129832
28.6320012174547 0.626115614972107
28.6480012182146 0.764929864939489
28.6640012189746 0.684965403807504
28.6800012197345 0.829358771120653
28.6960012204945 0.484143565756407
28.7120012212545 0.44827068139125
28.7280012220144 0.70517830914023
28.7440012227744 0.725600018192941
28.7600012235343 0.40226287695597
28.7760012242943 0.415585910768788
28.7920012250543 0.715079387568264
28.8080012258142 0.932719337765038
28.8240012265742 0.78196590934829
28.8400012273341 0.867630156644862
28.8560012280941 0.892505077231376
28.8720012288541 0.612972610131382
28.888001229614 0.58012664650163
28.904001230374 0.755614146963041
28.9200012311339 0.4998669096807
28.9360012318939 0.546359252245198
28.9520012326538 0.66023136783605
28.9680012334138 0.443567829538377
28.9840012341738 0.488264165113482
29.0000012349337 0.705296688829405
29.0160012356937 0.864804431520662
29.0320012364536 0.689342203953576
29.0480012372136 0.606509379541682
29.0640012379736 0.691084743997152
29.0800012387335 1.07936432807161
29.0960012394935 1.05281564080714
29.1120012402534 0.996883988576619
29.1280012410134 0.991388774500203
29.1440012417734 0.560360663369248
29.1600012425333 0.876990020756475
29.1760012432933 1.02166557591131
29.1920012440532 0.960496964918693
29.2080012448132 0.848716945184737
29.2240012455732 0.812360200808247
29.2400012463331 0.479834589288658
29.2560012470931 0.575898991098881
29.272001247853 0.629106638588642
29.288001248613 0.391581996425692
29.304001249373 0.420517588169519
29.3200012501329 0.679283669633008
29.3360012508929 0.575511637325244
29.3520012516528 0.399583258628617
29.3680012524128 0.803088480961146
29.3840012531727 0.420515454621868
29.4000012539327 0.518821184903109
29.4160012546927 0.624924666911197
29.4320012554526 0.549698205579093
29.4480012562126 0.572104848040774
29.4640012569725 0.384056956426662
29.4800012577325 0.74920948595149
29.4960012584925 0.633613082151983
29.5120012592524 0.527570344842014
29.5280012600124 0.729984007086052
29.5440012607723 0.689997373229475
29.5600012615323 0.929267889538024
29.5760012622923 1.15674293714263
29.5920012630522 0.763159482305114
29.6080012638122 0.861850243026552
29.6240012645721 0.877511441900714
29.6400012653321 0.560308235073608
29.6560012660921 0.749541152307845
29.672001266852 0.678130431341943
29.688001267612 1.03839232512396
29.7040012683719 0.639800442116481
29.7200012691319 0.802104363957568
29.7360012698919 0.544986060947343
29.7520012706518 0.391693962318611
29.7680012714118 0.707874227324746
29.7840012721717 0.959541263974772
29.8000012729317 0.883450408586063
29.8160012736916 0.68186307308644
29.8320012744516 0.810183553537395
29.8480012752116 0.543427489404626
29.8640012759715 0.711423725828491
29.8800012767315 0.604004765313505
29.8960012774914 0.810933419614725
29.9120012782514 0.377520361128761
29.9280012790114 0.667875011100085
29.9440012797713 0.812874348174902
29.9600012805313 0.892790555699178
29.9760012812912 1.09263977398628
29.9920012820512 1.11249479230698
30.0080012828112 0.793905928248169
30.0240012835711 0.781907121943487
30.0400012843311 0.791533638222573
30.056001285091 0.744641466411593
30.072001285851 0.580660719455189
30.088001286611 1.00877256925147
30.1040012873709 0.75574511197222
30.1200012881309 0.521522916326913
30.1360012888908 0.381203925467687
30.1520012896508 0.771606274282666
30.1680012904107 0.496758442011859
30.1840012911707 0.356418843456399
30.2000012919307 0.683505386185677
30.2160012926906 0.5605107426411
30.2320012934506 0.804359259480338
30.2480012942105 0.564052057046809
30.2640012949705 0.805615338306141
30.2800012957305 0.599408241260323
30.2960012964904 0.47874064045409
30.3120012972504 0.632884333798617
30.3280012980103 0.907548274142597
30.3440012987703 1.0584571301782
30.3600012995303 0.928554204561896
30.3760013002902 0.732617323506243
30.3920013010502 0.679803385124988
30.4080013018101 0.556649056184424
30.4240013025701 0.526224681558836
30.4400013033301 0.493595114150422
30.45600130409 0.782170626966492
30.47200130485 0.584203609597963
30.4880013056099 0.560504415038968
30.5040013063699 0.353351675976141
30.5200013071299 0.756643627880513
30.5360013078898 0.793973186500175
30.5520013086498 0.572082847199318
30.5680013094097 0.909748651908021
30.5840013101697 0.882169891387507
30.6000013109296 0.692490606982872
30.6160013116896 0.435341988372191
30.6320013124496 0.42402318517541
30.6480013132095 0.384329318562248
30.6640013139695 0.694421307852797
30.6800013147294 0.621978919754884
30.6960013154894 0.632720145231765
30.7120013162494 0.525914512325548
30.7280013170093 0.496774584581503
30.7440013177693 0.697598444255744
30.7600013185292 0.722855985621369
30.7760013192892 0.694698134513589
30.7920013200492 0.657965988259503
30.8080013208091 0.939349222956547
30.8240013215691 0.676247297039212
30.840001322329 0.38398122459718
30.856001323089 0.411548867306533
30.872001323849 0.406061697442383
30.8880013246089 0.716241155498288
30.9040013253689 0.369899627589554
30.9200013261288 0.334798231582329
30.9360013268888 0.736855903987811
30.9520013276488 0.633524820007732
30.9680013284087 0.558125606119558
30.9840013291687 0.572808345464773
31.0000013299286 0.786296774405337
31.0160013306886 0.613854589953878
31.0320013314485 0.771391541581863
31.0480013322085 0.635594354923847
31.0640013329685 0.854849436061273
31.0800013337284 0.931390862823759
31.0960013344884 0.87753394504293
31.1120013352483 0.751760717848192
31.1280013360083 0.531175265655308
31.1440013367683 0.751106383064251
31.1600013375282 0.73466329956387
31.1760013382882 0.847360435193766
31.1920013390481 1.10181437589867
31.2080013398081 0.995605168559732
31.2240013405681 0.922747427116908
31.240001341328 0.945773160107655
31.256001342088 0.931283891354553
31.2720013428479 0.824835962629675
31.2880013436079 0.68179121062924
31.3040013443679 0.643147672720191
31.3200013451278 0.926053070156692
31.3360013458878 1.03807182613785
31.3520013466477 0.806038883706032
31.3680013474077 1.0537268991242
31.3840013481677 1.1893879614474
31.4000013489276 0.659350322497743
31.4160013496876 0.72727130231179
31.4320013504475 0.563984226216917
31.4480013512075 0.677861842828293
31.4640013519674 0.943227728272303
31.4800013527274 0.403971840144346
31.4960013534874 0.794113561125549
31.5120013542473 0.734426250026989
31.5280013550073 0.743513462428441
31.5440013557672 0.761867981146373
31.5600013565272 0.734197518360881
31.5760013572872 0.517741565503922
31.5920013580471 0.598150898184881
31.6080013588071 0.844543035125526
31.624001359567 0.517222125842158
31.640001360327 0.700398872068751
31.656001361087 0.6685077537931
31.6720013618469 0.986525907113569
31.6880013626069 0.618482900053836
31.7040013633668 0.529557098618179
31.7200013641268 0.617924510742836
31.7360013648868 0.49277501178034
31.7520013656467 0.468390097719672
31.7680013664067 0.73357658033959
31.7840013671666 0.806852354495688
31.8000013679266 0.883815627034019
31.8160013686865 0.675949595473956
31.8320013694465 0.783835505378444
31.8480013702065 0.381837534429861
31.8640013709664 0.519763480579597
31.8800013717264 0.684099903586011
31.8960013724863 0.417557383367235
31.9120013732463 0.781833828133564
31.9280013740063 0.984253196572476
31.9440013747662 0.650115268258198
31.9600013755262 0.455713646291912
31.9760013762861 0.694249637425776
31.9920013770461 0.981245939318775
32.0080013778061 0.654646663665301
32.024001378566 0.838853820455394
32.040001379326 0.885804477470996
32.0560013800859 0.855639896333344
32.0720013808459 0.858618346592755
32.0880013816059 0.767841068323183
32.1040013823658 0.792922058865163
32.1200013831258 0.900267568940921
32.1360013838857 0.585260238235411
32.1520013846457 0.656425149628358
32.1680013854057 0.530839586699327
32.1840013861656 0.725339965547851
32.2000013869256 0.807788732670671
32.2160013876855 0.62584034626788
32.2320013884455 0.426540114400111
32.2480013892054 0.34043961868458
32.2640013899654 0.462559852328235
32.2800013907254 0.429092954559812
32.2960013914853 0.620868237011109
32.3120013922453 0.719165534506349
32.3280013930052 0.423503990954164
32.3440013937652 0.570082293864935
32.3600013945252 0.693885581393697
32.3760013952851 0.385693534180992
32.3920013960451 0.472646678576978
32.408001396805 0.455086830412045
32.424001397565 0.554196963057924
32.440001398325 0.755091739331169
32.4560013990849 0.503380939039956
32.4720013998449 0.607212470957735
32.4880014006048 0.579264271559448
32.5040014013648 0.750266059283219
32.5200014021248 0.495078083510898
32.5360014028847 0.490315103164542
32.5520014036447 0.490254015622139
32.5680014044046 0.427839242036727
32.5840014051646 0.527612131696054
32.6000014059246 0.59089793217935
32.6160014066845 0.711628360399956
32.6320014074445 0.59318758984943
32.6480014082044 0.697705060504942
32.6640014089644 0.656423020048915
32.6800014097243 0.493446385513225
32.6960014104843 0.835947624355316
32.7120014112443 0.78498108094733
32.7280014120042 0.909961577814151
32.7440014127642 0.574675428804913
32.7600014135241 0.430648954021517
32.7760014142841 0.507969069961291
32.7920014150441 0.805689655524719
32.808001415804 0.381753245743855
32.824001416564 0.381485826503378
32.8400014173239 0.965924195978648
32.8560014180839 0.770904171141571
32.8720014188439 0.728429953085851
32.8880014196038 0.557192471938978
32.9040014203638 0.599859576093594
32.9200014211237 0.406930784776142
32.9360014218837 0.699600846087955
32.9520014226437 0.651401974100652
32.9680014234036 0.845287655259154
32.9840014241636 0.596340848162718
33.0000014249235 0.868753674337458
33.0160014256835 0.523998654254321
33.0320014264435 0.747494690560228
33.0480014272034 0.835897258379848
33.0640014279634 0.587045862114487
33.0800014287233 0.294590247578451
33.0960014294833 0.421643779828461
33.1120014302432 0.473801428709169
33.1280014310032 0.500877772841064
33.1440014317632 0.573936380928507
33.1600014325231 0.399319505221196
33.1760014332831 0.675539003386566
33.192001434043 0.540543499184285
33.208001434803 0.438025160626
33.224001435563 0.448932027191517
33.2400014363229 0.781778308371816
33.2560014370829 0.668705028247451
33.2720014378428 0.832345080296069
33.2880014386028 0.545137047774193
33.3040014393628 0.804638060683488
33.3200014401227 0.910146430312293
33.3360014408827 0.889130855217435
33.3520014416426 0.789281637840665
33.3680014424026 0.524372558311414
33.3840014431626 0.750476152642241
33.4000014439225 0.895550836157306
33.4160014446825 0.591405820899984
33.4320014454424 0.433842057962366
33.4480014462024 0.577580922744843
33.4640014469623 0.490839383291086
33.4800014477223 0.416091532423698
33.4960014484823 0.569273150961648
33.5120014492422 0.398254060934572
33.5280014500022 0.591061261764861
33.5440014507621 0.265429847960947
33.5600014515221 0.615170128495498
33.5760014522821 0.422102271822209
33.592001453042 0.550917020017336
33.608001453802 0.472208869884119
33.6240014545619 0.629196416829587
33.6400014553219 0.732207690403215
33.6560014560819 0.66643152165091
33.6720014568418 0.423353109284473
33.6880014576018 0.46491321822624
33.7040014583617 0.427573374475668
33.7200014591217 0.67815547889043
33.7360014598817 0.567718979939
33.7520014606416 0.695570943659656
33.7680014614016 0.543001123872177
33.7840014621615 0.701050752319527
33.8000014629215 0.671684965152635
33.8160014636815 0.220721155723493
33.8320014644414 0.58969237783946
33.8480014652014 0.807269058097756
33.8640014659613 0.330297480656416
33.8800014667213 0.605972188036513
33.8960014674812 0.511850472660749
33.9120014682412 0.569826880558916
33.9280014690012 0.451495875362978
33.9440014697611 0.765229333420288
33.9600014705211 0.566299695478651
33.976001471281 0.506779194438425
33.992001472041 0.541496521899772
34.008001472801 0.683304677389709
34.0240014735609 0.705871510080401
34.0400014743209 0.635552248693407
34.0560014750808 0.667891261789912
34.0720014758408 0.784673535317155
34.0880014766008 0.212110595052852
34.1040014773607 0.733739879976683
34.1200014781207 0.636419663993858
34.1360014788806 0.556281851334028
34.1520014796406 0.481000370128163
34.1680014804006 0.556417105122338
34.1840014811605 0.24006480561144
34.2000014819205 0.444771993212343
34.2160014826804 0.931996321669705
34.2320014834404 0.752285295380167
34.2480014842004 0.578851801121604
34.2640014849603 0.616524604302595
34.2800014857203 0.758203114800827
34.2960014864802 0.798655969629053
34.3120014872402 0.69877315941497
34.3280014880001 0.706714784457956
34.3440014887601 0.900258027046062
34.3600014895201 0.929578799391366
34.37600149028 0.952798509265718
34.39200149104 0.836710074863372
34.4080014917999 0.9260371237889
34.4240014925599 1.33381381892511
34.4400014933199 1.13072494293101
34.4560014940798 1.46524508959992
34.4720014948398 1.51227956787845
34.4880014955997 1.63553527763936
34.5040014963597 1.5210513426719
34.5200014971197 1.78373342199825
34.5360014978796 2.17722272965178
34.5520014986396 1.84624492874445
34.5680014993995 1.96040283071469
34.5840015001595 2.33706759528498
34.6000015009195 2.21435032698103
34.6160015016794 2.40890464481036
34.6320015024394 2.39263118078929
34.6480015031993 2.16322390193
34.6640015039593 2.27807358295438
34.6800015047193 2.64825454215236
34.6960015054792 2.71368929964141
34.7120015062392 3.1544110317481
34.7280015069991 2.83290000033978
34.7440015077591 2.79231547823845
34.760001508519 3.04050507317289
34.776001509279 3.10196783978
34.792001510039 3.37612728546037
34.8080015107989 3.45435867288381
34.8240015115589 3.43873248733899
34.8400015123188 3.52150599652378
34.8560015130788 3.63641411712515
34.8720015138388 4.00117602550909
34.8880015145987 3.92338446620104
34.9040015153587 4.26721559448677
34.9200015161186 4.46721866806681
34.9360015168786 4.46001967759303
34.9520015176386 4.2590547337774
34.9680015183985 4.28498950180345
34.9840015191585 4.40335041356168
35.0000015199184 4.43735377845153
35.0160015206784 4.22594719894505
35.0320015214384 3.53540618996796
35.0480015221983 3.79824315904939
35.0640015229583 3.72877640108099
35.0800015237182 3.67750039247334
35.0960015244782 3.37985873992264
35.1120015252381 3.51505894515915
35.1280015259981 3.27392686313507
35.1440015267581 3.16295479199017
35.160001527518 2.93730619902091
35.176001528278 2.68620392323048
35.1920015290379 2.73735910866796
35.2080015297979 2.65146672528576
35.2240015305579 2.54707381388396
35.2400015313178 2.36720688309029
35.2560015320778 2.40786700365475
35.2720015328377 2.52246740471217
35.2880015335977 2.61084463087237
35.3040015343577 2.41538238631849
35.3200015351176 2.23348567433538
35.3360015358776 2.11629713194623
35.3520015366375 2.22512845129342
35.3680015373975 2.46285436752206
35.3840015381575 2.55454296610844
35.4000015389174 2.31450440063378
35.4160015396774 2.25047242020324
35.4320015404373 2.4537898307753
35.4480015411973 2.52973437810362
35.4640015419573 2.75539521091693
35.4800015427172 3.04611671686427
35.4960015434772 3.04125528769443
35.5120015442371 2.272491905647
35.5280015449971 2.06096525980263
35.544001545757 2.4750842666601
35.560001546517 2.60192275948999
35.576001547277 2.21574381847864
35.5920015480369 2.42183545444955
35.6080015487969 2.14299537214416
35.6240015495568 2.2125953698902
35.6400015503168 2.02707111081275
35.6560015510768 2.00518132154102
35.6720015518367 2.37246509589711
35.6880015525967 2.06740468597358
35.7040015533566 1.84461032933135
35.7200015541166 1.99410296770357
35.7360015548766 1.95566708630135
35.7520015556365 2.15058233996628
35.7680015563965 2.01787823629988
35.7840015571564 2.206122638491
35.8000015579164 2.16192393904804
35.8160015586764 2.27973771901703
35.8320015594363 2.05719900644345
35.8480015601963 2.0644353550413
35.8640015609562 2.16208592900002
35.8800015617162 2.00725272725687
35.8960015624762 2.4745808753743
35.9120015632361 2.12836050940764
35.9280015639961 2.37059681458137
35.944001564756 2.47577471672689
35.960001565516 2.23786251786723
35.9760015662759 2.63322835933137
35.9920015670359 2.32109604753319
36.0080015677959 2.16592170083262
36.0240015685558 2.30519447454104
36.0400015693158 2.03910467439963
36.0560015700757 2.16913166115548
36.0720015708357 2.05915531649122
36.0880015715957 1.88309437294216
36.1040015723556 1.94967558232073
36.1200015731156 2.06746100917349
36.1360015738755 1.95712636842013
36.1520015746355 1.92573983117488
36.1680015753955 1.81414586173578
36.1840015761554 1.60724484945259
36.2000015769154 1.61173198212158
36.2160015776753 1.81724796702126
36.2320015784353 1.85183159895679
36.2480015791953 1.65791067718355
36.2640015799552 1.76751404351104
36.2800015807152 1.622918334608
36.2960015814751 1.76936028393786
36.3120015822351 2.04437037313171
36.328001582995 2.04633978267871
36.344001583755 1.84195169756819
36.360001584515 1.78411640328709
36.3760015852749 2.17307105460915
36.3920015860349 2.73323421173853
36.4080015867948 2.5586190216528
36.4240015875548 3.02644420907496
36.4400015883148 3.87786939875381
36.4560015890747 4.8242385759515
36.4720015898347 5.51882168687109
36.4880015905946 6.26291732500384
36.5040015913546 6.68140710096865
36.5200015921146 5.58850974982148
36.5360015928745 4.74342153171975
36.5520015936345 4.23696746424074
36.5680015943944 3.95490198660899
36.5840015951544 4.51169923006319
36.6000015959144 4.16422004173773
36.6160015966743 3.62510865816908
36.6320015974343 2.90985142126151
36.6480015981942 2.52750552653233
36.6640015989542 2.16745890616389
36.6800015997142 1.82167583065667
36.6960016004741 1.78302630013051
36.7120016012341 1.75174301603953
36.728001601994 1.68566607531455
36.744001602754 1.47545964010926
36.7600016035139 1.53688068511542
36.7760016042739 1.57832508707847
36.7920016050339 1.55107113736021
36.8080016057938 1.58666653928584
36.8240016065538 1.53864584825142
36.8400016073137 1.2685749749426
36.8560016080737 1.16697780265565
36.8720016088337 1.28094848599022
36.8880016095936 1.3283580452195
36.9040016103536 1.30827248695138
36.9200016111135 1.41561958657641
36.9360016118735 1.43233603065977
36.9520016126335 1.38114771626444
36.9680016133934 1.19723896716271
36.9840016141534 1.39608659190988
37.0000016149133 1.51124616675533
37.0160016156733 1.41523652441805
37.0320016164333 1.23321901167666
37.0480016171932 1.16054592713772
37.0640016179532 1.36600727030811
37.0800016187131 1.30290047494525
37.0960016194731 1.37882474570561
37.1120016202331 1.3324435784447
37.128001620993 1.28545837513931
37.144001621753 1.10895074676873
37.1600016225129 1.30183792285769
37.1760016232729 1.3109742179496
37.1920016240328 1.16633634220862
37.2080016247928 0.908638097297345
37.2240016255528 1.31125988503704
37.2400016263127 1.20152049242012
37.2560016270727 0.889024869573282
37.2720016278326 1.40912129254783
37.2880016285926 1.26175765035987
37.3040016293526 1.45179039973744
37.3200016301125 1.33750352176386
37.3360016308725 0.981161818515002
37.3520016316324 1.33506067805955
37.3680016323924 1.38862920128988
37.3840016331524 1.42505302599426
37.4000016339123 1.63661347053603
37.4160016346723 1.66931361917212
37.4320016354322 1.46406922339014
37.4480016361922 1.50933628485429
37.4640016369522 1.41868300829753
37.4800016377121 1.58039800528021
37.4960016384721 1.60854764288157
37.512001639232 1.68542076817395
37.528001639992 1.73126531054196
37.544001640752 1.57651108131057
37.5600016415119 1.87931396819448
37.5760016422719 1.704823385397
37.5920016430318 1.68414469538597
37.6080016437918 1.69967681577971
37.6240016445517 1.86123219317591
37.6400016453117 1.86102255351171
37.6560016460717 1.66357052540115
37.6720016468316 1.87734715525977
37.6880016475916 1.68260064018784
37.7040016483515 2.0242083761736
37.7200016491115 1.89533800111063
37.7360016498715 2.20858316796175
37.7520016506314 2.1550934045556
37.7680016513914 1.91816689401534
37.7840016521513 2.08822510410206
37.8000016529113 1.89551583966906
37.8160016536713 1.6810333488992
37.8320016544312 2.01407132797063
37.8480016551912 1.8804318853113
37.8640016559511 1.73973511382784
37.8800016567111 1.79446137145194
37.8960016574711 1.49445280914774
37.912001658231 1.46335196872363
37.928001658991 1.292858768615
37.9440016597509 1.42495955286403
37.9600016605109 1.44998799390241
37.9760016612708 1.69916009692029
37.9920016620308 1.68931223692087
38.0080016627908 1.40371572348937
38.0240016635507 1.34577337065088
38.0400016643107 1.46161502665376
38.0560016650706 1.38208686862605
38.0720016658306 1.60677986078208
38.0880016665906 1.72341539444575
38.1040016673505 1.54921326012434
38.1200016681105 1.63843720943922
38.1360016688704 1.39130343780722
38.1520016696304 1.7213366414025
38.1680016703904 1.71904742466206
38.1840016711503 1.70979481420708
38.2000016719103 1.66401298304564
38.2160016726702 1.30706781143526
38.2320016734302 1.71233067060806
38.2480016741902 1.6536109435768
38.2640016749501 1.89333073680294
38.2800016757101 1.92326326799945
38.29600167647 2.12727747639156
38.31200167723 1.86240346590701
38.32800167799 2.09256688928659
38.3440016787499 1.97750914792467
38.3600016795099 2.21197540254807
38.3760016802698 2.21413223743852
38.3920016810298 2.11044401264608
38.4080016817897 2.20554648517969
38.4240016825497 2.14501931359154
38.4400016833097 2.12986579723327
38.4560016840696 2.07061287093661
38.4720016848296 2.16978979891726
38.4880016855895 2.2010033730938
38.5040016863495 1.81213126154959
38.5200016871095 2.21217116226948
38.5360016878694 1.97154499475553
38.5520016886294 1.77332437493562
38.5680016893893 2.06384428042475
38.5840016901493 2.06849389059875
38.6000016909093 2.08510459157494
38.6160016916692 1.95747103340985
38.6320016924292 2.01042601685632
38.6480016931891 2.03928125767358
38.6640016939491 1.87328959199512
38.6800016947091 1.78956624925653
38.696001695469 1.61266112110639
38.712001696229 1.68084782364536
38.7280016969889 1.32435988753897
38.7440016977489 1.60084639562904
38.7600016985089 1.48907164832632
38.7760016992688 1.21017050007067
38.7920017000288 1.37794202806047
38.8080017007887 0.974389579311159
38.8240017015487 1.15692921744763
38.8400017023086 0.813968923138908
38.8560017030686 1.11350129307226
38.8720017038286 1.21093387836168
38.8880017045885 1.27783589204175
38.9040017053485 0.988654499016626
38.9200017061084 1.32921822947968
38.9360017068684 1.48295771306783
38.9520017076284 1.19922077402853
38.9680017083883 1.16045261999902
38.9840017091483 0.878275320575614
39.0000017099082 1.37337969189298
39.0160017106682 0.976052487810793
39.0320017114282 0.904868051688662
39.0480017121881 1.28447364927292
39.0640017129481 1.40694852677376
39.080001713708 1.09183883045175
39.096001714468 1.13040668252598
39.112001715228 1.29797055194707
39.1280017159879 1.21427151131564
39.1440017167479 1.60829665890436
39.1600017175078 1.56209897510792
39.1760017182678 1.28283444575979
39.1920017190278 1.42995367434264
39.2080017197877 1.96265622663028
39.2240017205477 1.42932997644777
39.2400017213076 1.28529965565888
39.2560017220676 1.18277968545651
39.2720017228275 1.69180588465556
39.2880017235875 1.76850720053593
39.3040017243475 1.62658587691067
39.3200017251074 1.96907960058662
39.3360017258674 2.04729236244052
39.3520017266273 2.60468414801313
39.3680017273873 3.3077611820947
39.3840017281473 4.32107787633057
39.4000017289072 4.96491302002147
39.4160017296672 5.70811626481592
39.4320017304271 5.39540539518532
39.4480017311871 4.74332577374103
39.4640017319471 3.72327328013349
39.480001732707 3.237661644896
39.496001733467 3.40439862902291
39.5120017342269 3.29070897147024
39.5280017349869 2.91927826751174
39.5440017357469 2.86933247567025
39.5600017365068 2.11963928003648
39.5760017372668 1.43451953004095
39.5920017380267 1.01875298734246
39.6080017387867 0.797439325501315
39.6240017395466 1.04494130379792
39.6400017403066 0.787511060769253
39.6560017410666 0.631866898991627
39.6720017418265 0.646183203187753
39.6880017425865 0.78523253146005
39.7040017433464 0.823734895129476
39.7200017441064 1.06397769026829
39.7360017448664 0.406432681688832
39.7520017456263 0.65737246082353
39.7680017463863 0.370783574663189
39.7840017471462 0.422243651446855
39.8000017479062 0.627570834883924
39.8160017486662 0.662036778820921
39.8320017494261 0.874149065701534
39.8480017501861 0.662886853803265
39.864001750946 0.799004303997661
39.880001751706 0.798045519028063
39.896001752466 0.639088045915549
39.9120017532259 0.741671226105979
39.9280017539859 0.742477654823231
39.9440017547458 0.844147250221122
39.9600017555058 0.7516313644448
39.9760017562658 1.16536302479861
39.9920017570257 0.85217928564456
