'Id: "" Comment: "" Operator: "Lab Manager" Anode: "Cu" Scantype: "Locked Coupled" TimePerStep: "157.8626" 
3 2.34384930677373
3.01600000075996 2.03222175925413
3.03200000151992 1.53710597400371
3.04800000227988 1.49274321540651
3.06400000303984 1.05126329052195
3.0800000037998 0.918569407979057
3.09600000455976 0.754028201733828
3.11200000531971 0.622234915360558
3.12800000607967 0.821491472273134
3.14400000683963 0.805255429299894
3.16000000759959 0.522353954240849
3.17600000835955 0.789535668598422
3.19200000911951 0.973107033757817
3.20800000987947 0.594926697766137
3.22400001063943 0.351219084005145
3.24000001139939 0.364981085706358
3.25600001215935 0.818911718372071
3.27200001291931 0.952706522329692
3.28800001367927 0.816048736093375
3.30400001443923 0.702682780062307
3.32000001519918 0.928458507596538
3.33600001595914 0.433400050514173
3.3520000167191 0
3.36800001747906 0.632276625632755
3.38400001823902 0.906469784902736
3.40000001899898 0.767195009475891
3.41600001975894 0.287526857847531
3.4320000205189 0.552429357475699
3.44800002127886 0.831757946846892
3.46400002203882 0.86326273815855
3.48000002279878 0.922381561791603
3.49600002355874 0.693766206797363
3.5120000243187 0.839865478389648
3.52800002507865 0.931714227509225
3.54400002583861 0.722275263742752
3.56000002659857 0.676244560313425
3.57600002735853 0.721343511619875
3.59200002811849 0.206748693870697
3.60800002887845 0.32974526687363
3.62400002963841 1.22283967275474
3.64000003039837 1.23525420046809
3.65600003115833 0.706139108084013
3.67200003191829 0.629088988960554
3.68800003267825 0.782281369412225
3.70400003343821 0.687057544925665
3.72000003419816 0.78005380368587
3.73600003495812 0.274867620712143
3.75200003571808 0.537296443666296
3.76800003647804 0.638249035840133
3.784000037238 0.464628151047904
3.80000003799796 0.786506720545709
3.81600003875792 0.966196718238287
3.83200003951788 0.904491540290142
3.84800004027784 0.762874581736838
3.8640000410378 1.14214292579516
3.88000004179776 1.1568509103072
3.89600004255772 1.01973288493923
3.91200004331768 0.539812007462242
3.92800004407763 0.385469473045525
3.94400004483759 0.530519093051289
3.96000004559755 0.501441070761842
3.97600004635751 0.521426108707338
3.99200004711747 0.810379114813315
4.00800004787743 1.08490987007793
4.02400004863739 1.10491394399903
4.04000004939735 0.960908325879203
4.05600005015731 0.276004892639111
4.07200005091727 0.513529247803014
4.08800005167723 1.14113284555663
4.10400005243719 0.81335618159962
4.12000005319715 0.911673551349356
4.1360000539571 0.852407507717675
4.15200005471706 0.565180048545038
4.16800005547702 0.303897609171727
4.18400005623698 0.361529540393761
4.20000005699694 0.509383560806604
4.2160000577569 0.734098516422993
4.23200005851686 1.02779580581041
4.24800005927682 0.662409600007912
4.26400006003678 0.465312179269873
4.28000006079674 1.0239518802541
4.2960000615567 1.18114977116161
4.31200006231666 0.791243799599659
4.32800006307662 0.444324283701516
4.34400006383657 0.546251889164086
4.36000006459653 0.475547625311798
4.37600006535649 0.380103656491883
4.39200006611645 0.716515556624458
4.40800006687641 0.684738543467788
4.42400006763637 0.562239837078746
4.44000006839633 0.268666170768899
4.45600006915629 0.558943618554505
4.47200006991625 0.815994271386451
4.48800007067621 0.649608381693554
4.50400007143617 0.563399088147179
4.52000007219613 0.526132894102151
4.53600007295609 0.574101388703085
4.55200007371604 0.560364319241121
4.568000074476 0.620611102296941
4.58400007523596 0.648155574957851
4.60000007599592 0.973747368688443
4.61600007675588 0.76528758352444
4.63200007751584 0.170557719430462
4.6480000782758 0.559705017275217
4.66400007903576 0.673258561868121
4.68000007979572 0.613625840774692
4.69600008055568 0.713807600294992
4.71200008131564 1.00017665705481
4.7280000820756 0.776460264019729
4.74400008283556 0.15785458987957
4.76000008359551 0.789793430544517
4.77600008435547 1.33375964880387
4.79200008511543 0.725590068826953
4.80800008587539 0.4564361766862
4.82400008663535 0.64420689809511
4.84000008739531 1.03132533493742
4.85600008815527 1.11303302620014
4.87200008891523 0.568665972863261
4.88800008967519 0.496280589114978
4.90400009043515 0.61105864514737
4.92000009119511 0.970874703619391
4.93600009195507 0.967101839077667
4.95200009271502 0.698070277658054
4.96800009347498 0.625878448679295
4.98400009423494 0.783853551309178
5.0000000949949 0.976139203792457
5.01600009575486 0.651946028983481
5.03200009651482 0.459398901129696
5.04800009727478 0.732124303439047
5.06400009803474 0.876205593562634
5.0800000987947 0.915769866381748
5.09600009955466 0.845039483501747
5.11200010031462 0.334875733964374
5.12800010107458 0.317041599513914
5.14400010183454 0.459179597795417
5.16000010259449 0.53321440158291
5.17600010335445 0.842081444231034
5.19200010411441 0.818081093160934
5.20800010487437 0.765619844050995
5.22400010563433 0.655574616127936
5.24000010639429 0.771790820746791
5.25600010715425 0.966409477538697
5.27200010791421 0.601221018608646
5.28800010867417 0.531620256436906
5.30400010943413 1.05790688801602
5.32000011019409 1.08207280390469
5.33600011095405 0.628906719864659
5.35200011171401 1.10379316596315
5.36800011247396 0.953480843824266
5.38400011323392 0.318482186448646
5.40000011399388 0.622027055537577
5.41600011475384 0.632897098440584
5.4320001155138 0.534865558697886
5.44800011627376 0.78373383200698
5.46400011703372 1.06295221733145
5.48000011779368 0.821189822348082
5.49600011855364 1.08100068478353
5.5120001193136 1.1512391431406
5.52800012007356 0.89132028571275
5.54400012083352 1.16548306719384
5.56000012159348 1.24122073930441
5.57600012235343 1.114913361441
5.59200012311339 1.04750140842289
5.60800012387335 1.24048357459793
5.62400012463331 1.11212388156417
5.64000012539327 1.08689897205665
5.65600012615323 0.880666706083604
5.67200012691319 0.952198166100619
5.68800012767315 0.754926600348472
5.70400012843311 0.668416024410556
5.72000012919307 0.943789294985123
5.73600012995303 0.629799323514929
5.75200013071299 0.945836023646031
5.76800013147295 1.13234411637319
5.7840001322329 1.18496773895019
5.80000013299286 1.26886994973991
5.81600013375282 1.10630192362806
5.83200013451278 1.42396528675111
5.84800013527274 1.08349123118424
5.8640001360327 1.31956081301793
5.88000013679266 1.5093986884355
5.89600013755262 0.947188089890345
5.91200013831258 1.15285142572391
5.92800013907254 1.47502553978625
5.9440001398325 1.14379331934154
5.96000014059246 1.21471892976387
5.97600014135242 1.8041957764968
5.99200014211237 1.94557721684098
6.00800014287233 1.24251203255648
6.02400014363229 1.43574138608796
6.04000014439225 2.14561350116097
6.05600014515221 1.6624388243655
6.07200014591217 1.51359432971942
6.08800014667213 1.76615266694468
6.10400014743209 1.74310978688306
6.12000014819205 1.93166946066154
6.13600014895201 2.11606764073709
6.15200014971197 2.39213671393129
6.16800015047192 2.67200115525974
6.18400015123188 2.21675172925657
6.20000015199184 2.01543233684264
6.2160001527518 2.15099237341436
6.23200015351176 2.38416499333516
6.24800015427172 2.22303790734654
6.26400015503168 2.3118339443059
6.28000015579164 2.28711308190911
6.2960001565516 1.87476516446094
6.31200015731156 1.78130124474746
6.32800015807152 2.28498707874919
6.34400015883148 2.33715950831212
6.36000015959144 1.93636096734584
6.37600016035139 2.23446563725299
6.39200016111135 2.19096183529723
6.40800016187131 1.81103948894983
6.42400016263127 2.41076051044709
6.44000016339123 2.55734612749395
6.45600016415119 2.28086466457467
6.47200016491115 2.47291987273598
6.48800016567111 2.10783403889742
6.50400016643107 2.02777497777861
6.52000016719103 2.20548705978513
6.53600016795099 2.23641444805483
6.55200016871095 2.04000049906466
6.56800016947091 2.25805423270672
6.58400017023086 2.38264961155446
6.60000017099082 2.559128628151
6.61600017175078 2.71138394280598
6.63200017251074 2.72810538771773
6.6480001732707 2.75121263523299
6.66400017403066 2.31595095185934
6.68000017479062 2.13485303223219
6.69600017555058 2.28422239932764
6.71200017631054 2.47925934682332
6.7280001770705 2.35962581640412
6.74400017783046 2.45320028465733
6.76000017859042 2.59249641367561
6.77600017935038 2.50918078931689
6.79200018011033 2.84096981073819
6.80800018087029 2.9658689752365
6.82400018163025 2.45479122689583
6.84000018239021 2.24080676182355
6.85600018315017 2.58018298395402
6.87200018391013 2.7905192196565
6.88800018467009 2.26351020401926
6.90400018543005 2.05099824247629
6.92000018619001 2.46951815946649
6.93600018694997 2.68126065973841
6.95200018770993 2.54791367352475
6.96800018846989 2.74521101803767
6.98400018922985 3.02396096252227
7.0000001899898 2.79886113602971
7.01600019074976 2.56573546287242
7.03200019150972 2.53185160335267
7.04800019226968 2.69448296852065
7.06400019302964 2.33248892666694
7.0800001937896 2.88601400402372
7.09600019454956 3.21138813147523
7.11200019530952 2.69116947544897
7.12800019606948 2.64589908085352
7.14400019682944 2.53097112258459
7.1600001975894 2.3810017443779
7.17600019834936 2.85642293685647
7.19200019910931 3.22739071507462
7.20800019986927 2.73244108345071
7.22400020062923 2.42354866675352
7.24000020138919 2.3990562108247
7.25600020214915 2.32674908625666
7.27200020290911 2.47953858456352
7.28800020366907 2.2149706415914
7.30400020442903 2.45461599706791
7.32000020518899 2.76652992119186
7.33600020594895 2.47150970125971
7.35200020670891 2.28640184567595
7.36800020746887 2.15447547489313
7.38400020822883 2.56053944853123
7.40000020898878 2.6909689918903
7.41600020974874 2.48473025904004
7.4320002105087 2.89487039244792
7.44800021126866 2.93652513493349
7.46400021202862 2.31939369175618
7.48000021278858 2.32511847514813
7.49600021354854 2.68960346422341
7.5120002143085 2.67239571620226
7.52800021506846 2.38286806174546
7.54400021582842 2.85616719093671
7.56000021658838 2.59822385342684
7.57600021734834 1.98033603353118
7.5920002181083 2.46192381316138
7.60800021886825 2.41537949597261
7.62400021962821 2.21782735311612
7.64000022038817 2.36863033213261
7.65600022114813 2.23615639867859
7.67200022190809 2.39455425162643
7.68800022266805 2.64034304562132
7.70400022342801 2.44027682506188
7.72000022418797 2.22481869554327
7.73600022494793 2.63840916039091
7.75200022570789 2.39529723872544
7.76800022646785 1.59731982291799
7.78400022722781 1.94992030098197
7.80000022798777 2.43619117176016
7.81600022874772 2.71830460062657
7.83200022950768 2.47778160911544
7.84800023026764 2.11238428460986
7.8640002310276 2.34434667070258
7.88000023178756 2.48142079289451
7.89600023254752 2.16184799981646
7.91200023330748 2.26855939254647
7.92800023406744 2.44630720037964
7.9440002348274 2.28733590946203
7.96000023558736 2.24777411486549
7.97600023634732 2.42915940582097
7.99200023710728 2.33869675125643
8.00800023786724 2.2434879119155
8.0240002386272 2.55435439193603
8.04000023938715 2.43280218088423
8.05600024014711 2.28393629078153
8.07200024090707 2.53244638602424
8.08800024166703 2.50742889465917
8.10400024242699 1.94012211198651
8.12000024318695 1.62971507583041
8.13600024394691 1.7732743221861
8.15200024470687 2.19648758767009
8.16800024546683 1.95344018619917
8.18400024622679 1.96627131985824
8.20000024698675 2.29092103672462
8.21600024774671 2.27993092196713
8.23200024850667 2.40417466099195
8.24800024926662 2.2381979193378
8.26400025002658 2.21116806610999
8.28000025078654 2.18891742866454
8.2960002515465 1.93611236946344
8.31200025230646 2.07464230242575
8.32800025306642 2.32036137733338
8.34400025382638 2.31015716603808
8.36000025458634 2.0662606027055
8.3760002553463 2.00456284437839
8.39200025610626 2.45736501439433
8.40800025686622 2.21335441499034
8.42400025762618 1.83680276496061
8.44000025838614 2.03572171515037
8.45600025914609 2.08564303043557
8.47200025990605 2.38829456664197
8.48800026066601 2.31843439410357
8.50400026142597 2.02077283880091
8.52000026218593 2.42208903284798
8.53600026294589 2.88586960320891
8.55200026370585 2.41078126888285
8.56800026446581 2.27591907794159
8.58400026522577 2.73213067014122
8.60000026598573 2.46490962369213
8.61600026674569 2.43917262924904
8.63200026750565 2.84852062600298
8.6480002682656 2.95763239959902
8.66400026902556 2.89146217649902
8.68000026978552 2.88943994518275
8.69600027054548 3.50343805901795
8.71200027130544 3.65587495573818
8.7280002720654 3.81774005184866
8.74400027282536 4.14849560165931
8.76000027358532 4.25702980410849
8.77600027434528 5.09353094304946
8.79200027510524 5.8350312059938
8.8080002758652 6.79826165323567
8.82400027662516 7.4079500569162
8.84000027738512 6.90934255998028
8.85600027814507 5.74024168469739
8.87200027890503 4.45200267781503
8.88800027966499 3.58396786890759
8.90400028042495 3.31531960953241
8.92000028118491 2.59015651269389
8.93600028194487 2.01186008237793
8.95200028270483 1.98857097710561
8.96800028346479 1.65307849028362
8.98400028422475 1.78172125813821
9.00000028498471 1.95612756797895
9.01600028574467 1.47098742239716
9.03200028650463 1.20183245118733
9.04800028726459 1.34514677758249
9.06400028802454 1.65097831202664
9.0800002887845 1.39398101584699
9.09600028954446 1.08375061506362
9.11200029030442 1.16704747572749
9.12800029106438 1.04163436342096
9.14400029182434 1.0638772052846
9.1600002925843 1.21058263871797
9.17600029334426 1.2671480750766
9.19200029410422 0.939430795235808
9.20800029486418 0.831799731160324
9.22400029562414 0.769772786557857
9.24000029638409 0.891965052039559
9.25600029714405 1.07627289974736
9.27200029790401 1.05814662741864
9.28800029866397 0.856141305793729
9.30400029942393 0.40655864773375
9.32000030018389 0.820791257572436
9.33600030094385 0.927705678794842
9.35200030170381 0.548607370386645
9.36800030246377 0.910955980078946
9.38400030322373 0.858153033115109
9.40000030398369 0.405634154140204
9.41600030474365 0.395804532318293
9.43200030550361 0.620050641427298
9.44800030626356 0.802829302652571
9.46400030702352 0.800476516020758
9.48000030778348 0.733046732988262
9.49600030854344 0.707834043726146
9.5120003093034 0.867395083489152
9.52800031006336 0.81155975878872
9.54400031082332 0.790442772796569
9.56000031158328 0.894857774601533
9.57600031234324 0.827582377516373
9.5920003131032 0.616185623943547
9.60800031386316 0.393726143759491
9.62400031462312 0.542674080242191
9.64000031538307 1.01772660182595
9.65600031614303 1.02517626241261
9.67200031690299 0.551620674711783
9.68800031766295 0.464013627186134
9.70400031842291 0.619306798356233
9.72000031918287 0.602297490596687
9.73600031994283 0.479827966139824
9.75200032070279 0.491026526518882
9.76800032146275 0.488992577223051
9.78400032222271 0.914253374475217
9.80000032298267 0.811938001178909
9.81600032374263 0.585178668923898
9.83200032450259 0.707537211334213
9.84800032526254 0.720908870988129
9.8640003260225 0.724680174457781
9.88000032678246 0.663132153475285
9.89600032754242 0.764873450098454
9.91200032830238 0.772479609826012
9.92800032906234 0.834795221707855
9.9440003298223 0.771779570203233
9.96000033058226 0.648545650194404
9.97600033134222 0.468002904383185
9.99200033210218 0.460060166157502
10.0080003328621 0.554952048945587
10.0240003336221 0.483079763315988
10.0400003343821 0.558365766198996
10.056000335142 0.692686848765749
10.072000335902 0.470207516907045
10.0880003366619 0.747741500749216
10.1040003374219 1.10998941112331
10.1200003381819 0.687514632354148
10.1360003389418 0.48251115436042
10.1520003397018 0.83899625881968
10.1680003404617 0.990823399534445
10.1840003412217 1.12247995856194
10.2000003419816 1.06210695980127
10.2160003427416 0.54498967745584
10.2320003435016 0.850795069816403
10.2480003442615 0.944764588372836
10.2640003450215 0.509212789549512
10.2800003457814 0.628485674696329
10.2960003465414 0.470485436023665
10.3120003473014 0.330729167920962
10.3280003480613 0.635676794164493
10.3440003488213 0.940506072059145
10.3600003495812 0.552686104948741
10.3760003503412 0.433458639962298
10.3920003511012 0.613047899193496
10.4080003518611 0.742767096048354
10.4240003526211 0.711922341753482
10.440000353381 0.516594545156115
10.456000354141 0.597715335875185
10.472000354901 0.758784520948454
10.4880003556609 0.921874885120209
10.5040003564209 1.04147591792649
10.5200003571808 1.0927016333623
10.5360003579408 0.818392859350839
10.5520003587008 0.797188544771027
10.5680003594607 0.714802537483076
10.5840003602207 0.594195060792872
10.6000003609806 0.445567228751356
10.6160003617406 0.687909703900932
10.6320003625005 1.00751328384349
10.6480003632605 0.693802380726984
10.6640003640205 0.44125777403007
10.6800003647804 0.950666218175872
10.6960003655404 1.02393736325325
10.7120003663003 0.684528586592439
10.7280003670603 0.651693850606469
10.7440003678203 0.277404672825881
10.7600003685802 0.399899314520002
10.7760003693402 0.703219792764596
10.7920003701001 0.93396007341247
10.8080003708601 0.7850013556818
10.8240003716201 0.367289024580561
10.84000037238 0.95518416468161
10.85600037314 1.17418536515575
10.8720003738999 0.902612609777309
10.8880003746599 0.898379700229373
10.9040003754199 0.886470655472083
10.9200003761798 0.634487998267586
10.9360003769398 0.931480246707444
10.9520003776997 0.887812709829877
10.9680003784597 0.32001346621959
10.9840003792196 0.670935451838007
11.0000003799796 0.742449931426957
11.0160003807396 0.517205594000121
11.0320003814995 0.434417440198585
11.0480003822595 0.876977196782063
11.0640003830194 0.906322226644287
11.0800003837794 0.748708474354094
11.0960003845394 0.696305622057512
11.1120003852993 0.60110499884043
11.1280003860593 0.636514324796631
11.1440003868192 0.507229301571575
11.1600003875792 0.733975278715489
11.1760003883392 0.959974305937822
11.1920003890991 0.98684331181305
11.2080003898591 1.02453188076708
11.224000390619 1.27700122750083
11.240000391379 0.989807358659307
11.256000392139 0.811377925634517
11.2720003928989 0.945717977331478
11.2880003936589 0.964955570124133
11.3040003944188 1.01159948974175
11.3200003951788 1.035751451972
11.3360003959388 1.13726219287624
11.3520003966987 1.16456092077575
11.3680003974587 1.06962065882863
11.3840003982186 0.739555669061017
11.4000003989786 0.774914603543488
11.4160003997385 0.803216393736367
11.4320004004985 0.78981466116506
11.4480004012585 1.05833541288342
11.4640004020184 1.09712751315719
11.4800004027784 1.28672910589315
11.4960004035383 1.36566001004185
11.5120004042983 1.59156332765951
11.5280004050583 2.01697975852668
11.5440004058182 2.06527347289615
11.5600004065782 2.4328764963819
11.5760004073381 2.93135721934626
11.5920004080981 3.7254315085094
11.6080004088581 3.91176695349789
11.624000409618 2.87575401253937
11.640000410378 2.18784655749202
11.6560004111379 1.92951203728681
11.6720004118979 1.78006745240289
11.6880004126579 1.55986892325951
11.7040004134178 1.31703716721887
11.7200004141778 1.47801088246928
11.7360004149377 1.4342142652145
11.7520004156977 1.7075561127918
11.7680004164577 1.93668080153005
11.7840004172176 1.71967135396215
11.8000004179776 1.89407683531233
11.8160004187375 1.91721724946347
11.8320004194975 1.80768938382528
11.8480004202574 1.85481909823356
11.8640004210174 1.93624425103262
11.8800004217774 2.18123885799741
11.8960004225373 2.33668102288762
11.9120004232973 2.27149873206554
11.9280004240572 2.52157039004404
11.9440004248172 2.61472188431115
11.9600004255772 3.00348777214479
11.9760004263371 3.02523692212605
11.9920004270971 2.7845877282682
12.008000427857 3.0613048202004
12.024000428617 3.09661651404006
12.040000429377 3.1188475317607
12.0560004301369 3.28348931836251
12.0720004308969 3.50152154519755
12.0880004316568 3.82257791133428
12.1040004324168 4.12825870897237
12.1200004331768 4.46084701633946
12.1360004339367 4.90374398494027
12.1520004346967 5.58630886963167
12.1680004354566 5.90566151568789
12.1840004362166 6.37986851561406
12.2000004369766 7.16633259531576
12.2160004377365 8.18768354474756
12.2320004384965 9.31206251100618
12.2480004392564 10.7374640739056
12.2640004400164 12.5078319005917
12.2800004407763 14.2998701243109
12.2960004415363 17.0031430911104
12.3120004422963 19.9637178833183
12.3280004430562 21.1350382438563
12.3440004438162 19.6789668543163
12.3600004445761 16.7008485049954
12.3760004453361 12.9284204487604
12.3920004460961 10.1519793113898
12.408000446856 8.42284033881178
12.424000447616 7.24544046271065
12.4400004483759 6.36635788593366
12.4560004491359 5.83103257592758
12.4720004498959 5.46503933396031
12.4880004506558 4.82012587889476
12.5040004514158 4.58374704086421
12.5200004521757 3.76014059231158
12.5360004529357 3.24178683028992
12.5520004536957 3.4345528910066
12.5680004544556 2.8564051852944
12.5840004552156 2.41407121537814
12.6000004559755 2.21500403809533
12.6160004567355 2.13412555133622
12.6320004574954 1.96449694702648
12.6480004582554 1.66564449853872
12.6640004590154 1.76562643668066
12.6800004597753 1.66251163684259
12.6960004605353 1.3167276275509
12.7120004612952 1.46078202795223
12.7280004620552 1.5568922146164
12.7440004628152 1.5252768288506
12.7600004635751 1.26022416512193
12.7760004643351 1.0966104032833
12.792000465095 1.17833874017291
12.808000465855 1.34512465096068
12.824000466615 1.55527641874707
12.8400004673749 1.07164619090873
12.8560004681349 0.623099152514562
12.8720004688948 0.703697010097392
12.8880004696548 1.12867757220138
12.9040004704148 1.12493566790013
12.9200004711747 0.70775883867611
12.9360004719347 0.878125067833849
12.9520004726946 1.01915199788897
12.9680004734546 0.820435320762427
12.9840004742146 0.878728523447072
13.0000004749745 0.560336423822702
13.0160004757345 0.630561047499946
13.0320004764944 0.882490460844028
13.0480004772544 0.82744199007477
13.0640004780143 0.895264766973504
13.0800004787743 0.691518234438684
13.0960004795343 0.567684375573588
13.1120004802942 0.634039948170697
13.1280004810542 0.502853536298767
13.1440004818141 0.363249804988283
13.1600004825741 0.640957001829975
13.1760004833341 0.753443663539042
13.192000484094 0.75228083629361
13.208000484854 0.751650374498654
13.2240004856139 0.888286307408432
13.2400004863739 0.69495651032379
13.2560004871339 0.922521435877623
13.2720004878938 1.03491980774648
13.2880004886538 0.665276385545573
13.3040004894137 0.870018774488964
13.3200004901737 0.90004803777726
13.3360004909337 0.839719808902416
13.3520004916936 0.701660539650082
13.3680004924536 0.723233646046281
13.3840004932135 0.629034852554883
13.4000004939735 0.615580559914561
13.4160004947335 0.72818056029238
13.4320004954934 0.737237110965625
13.4480004962534 0.874610610833182
13.4640004970133 0.667872455801422
13.4800004977733 0.745303823543093
13.4960004985332 0.786525911839333
13.5120004992932 0.854228056755071
13.5280005000532 0.967171927597173
13.5440005008131 0.663170078667521
13.5600005015731 0.55985207805166
13.576000502333 0.550273610653857
13.592000503093 0.55247599504194
13.608000503853 0.697085742776252
13.6240005046129 0.838428290716386
13.6400005053729 0.950624962740585
13.6560005061328 1.10513871678591
13.6720005068928 1.01455963333966
13.6880005076528 0.972525883947043
13.7040005084127 1.05475700200324
13.7200005091727 0.998862494321438
13.7360005099326 0.905776185939237
13.7520005106926 0.997850821895557
13.7680005114526 0.852589011586799
13.7840005122125 0.664411571059119
13.8000005129725 0.896102213621425
13.8160005137324 0.828637346674871
13.8320005144924 0.813415815005671
13.8480005152523 0.915620660544225
13.8640005160123 0.876977533619278
13.8800005167723 0.929411814960679
13.8960005175322 0.930740584635146
13.9120005182922 1.00688617942089
13.9280005190521 0.822735782333146
13.9440005198121 0.924369683537091
13.9600005205721 0.84763203612156
13.976000521332 0.503059881228797
13.992000522092 0.761542048212064
14.0080005228519 0.666680042673716
14.0240005236119 0.389828007132781
14.0400005243719 0.540723162305677
14.0560005251318 0.437077484569556
14.0720005258918 0.59091324285885
14.0880005266517 0.796149503805073
14.1040005274117 0.594693895760913
14.1200005281717 0.818896634908891
14.1360005289316 1.03492530336229
14.1520005296916 0.742130316052095
14.1680005304515 0.680678713322879
14.1840005312115 1.11117500822113
14.2000005319715 0.976294307638494
14.2160005327314 0.548214562599311
14.2320005334914 0.460694216643075
14.2480005342513 0.800689750199642
14.2640005350113 1.02745382231658
14.2800005357712 0.812682821124892
14.2960005365312 0.596909158245045
14.3120005372912 0.629947117950901
14.3280005380511 0.9103978534269
14.3440005388111 0.869734728109027
14.360000539571 0.694586859427515
14.376000540331 0.739824822831233
14.392000541091 0.740571331469471
14.4080005418509 0.853989103860167
14.4240005426109 0.569090483028105
14.4400005433708 0.52898989676204
14.4560005441308 0.605385369159725
14.4720005448908 0.55168972611647
14.4880005456507 0.687867003832919
14.5040005464107 0.673550153623514
14.5200005471706 0.665462502828591
14.5360005479306 0.935842447188966
14.5520005486906 0.808925709113737
14.5680005494505 0.558802757784501
14.5840005502105 0.750699476516833
14.6000005509704 0.567549270917775
14.6160005517304 0.902157443165337
14.6320005524904 0.86065428346965
14.6480005532503 0.612994100536361
14.6640005540103 0.725925437626693
14.6800005547702 0.516611540204646
14.6960005555302 0.488505831155039
14.7120005562901 0.538149153297646
14.7280005570501 0.592187911751609
14.7440005578101 0.73668392164349
14.76000055857 0.667464079829659
14.77600055933 0.540558031223931
14.7920005600899 0.575234373641537
14.8080005608499 0.722730944463255
14.8240005616099 0.712210302289463
14.8400005623698 0.550702230804546
14.8560005631298 0.71747708941307
14.8720005638897 0.659923514976467
14.8880005646497 0.639687099316437
14.9040005654097 0.724286418954112
14.9200005661696 0.505088176375635
14.9360005669296 0.548670614210665
14.9520005676895 0.846753391961941
14.9680005684495 0.796394184048483
14.9840005692095 0.579614806390442
15.0000005699694 0.577149283345007
15.0160005707294 0.604178260906468
15.0320005714893 0.666137042728338
15.0480005722493 0.691972495756813
15.0640005730093 0.749031496281389
15.0800005737692 0.782198429915878
15.0960005745292 0.562487441716047
15.1120005752891 0.471852887709716
15.1280005760491 0.96371995063573
15.144000576809 0.981681162092536
15.160000577569 0.500826872967751
15.176000578329 0.443367277200263
15.1920005790889 0.720563180362989
15.2080005798489 0.625401389699816
15.2240005806088 0.527446196235386
15.2400005813688 0.671608955577884
15.2560005821288 0.591916473644369
15.2720005828887 0.521782362903357
15.2880005836487 0.665088907721833
15.3040005844086 0.743365481750553
15.3200005851686 0.525904730728464
15.3360005859286 0.532232090445507
15.3520005866885 0.62147895616195
15.3680005874485 0.785321414407715
15.3840005882084 0.693974663626322
15.4000005889684 0.432868897847029
15.4160005897284 0.548030623265383
15.4320005904883 0.813213501918089
15.4480005912483 0.681947612484594
15.4640005920082 0.694670541023124
15.4800005927682 0.818638078442703
15.4960005935281 0.706658564844187
15.5120005942881 0.746509930534069
15.5280005950481 0.645510077693356
15.544000595808 0.591034295708324
15.560000596568 0.539489501297146
15.5760005973279 0.562043906571025
15.5920005980879 0.579864337889371
15.6080005988479 0.648357353394969
15.6240005996078 0.914339046228084
15.6400006003678 0.908116542216459
15.6560006011277 0.887951664795708
15.6720006018877 0.709158697175437
15.6880006026477 0.512319707727564
15.7040006034076 0.807813753287145
15.7200006041676 0.805165860178277
15.7360006049275 0.86975394412837
15.7520006056875 0.730971943883422
15.7680006064475 0.401030055728415
15.7840006072074 0.450047549431901
15.8000006079674 0.676014758319355
15.8160006087273 0.841270288423827
15.8320006094873 0.700641154195199
15.8480006102473 0.673654371823825
15.8640006110072 0.73845033769544
15.8800006117672 0.886218627366305
15.8960006125271 0.923514439008456
15.9120006132871 0.658937615202841
15.928000614047 0.682339354306989
15.944000614807 0.702863769447708
15.960000615567 0.631754419137022
15.9760006163269 0.582191778049821
15.9920006170869 0.560902706818782
16.0080006178468 0.610316526437728
16.0240006186068 0.669516515413072
16.0400006193668 0.835351401492706
16.0560006201267 0.720163216750526
16.0720006208867 0.255019298215973
16.0880006216466 0.312105676059121
16.1040006224066 0.580794163982244
16.1200006231666 0.914934318367358
16.1360006239265 0.949675575269405
16.1520006246865 0.794778097507681
16.1680006254464 0.718805346588749
16.1840006262064 0.549949285600405
16.2000006269664 0.615241373967359
16.2160006277263 0.563189597199359
16.2320006284863 0.677441139232644
16.2480006292462 0.880017523000216
16.2640006300062 0.796947375454392
16.2800006307661 0.742469589964972
16.2960006315261 0.651117980417966
16.3120006322861 0.599642727082506
16.328000633046 0.603384362908741
16.344000633806 0.619930240416743
16.3600006345659 0.777295189293739
16.3760006353259 0.899449282932379
16.3920006360859 0.627190212533168
16.4080006368458 0.503269104746435
16.4240006376058 0.57788061893794
16.4400006383657 0.685175065857188
16.4560006391257 0.906050983996195
16.4720006398857 0.687644902371512
16.4880006406456 0.592977831810557
16.5040006414056 0.557164168908869
16.5200006421655 0.591964189286372
16.5360006429255 0.85974819003514
16.5520006436855 0.806054764601104
16.5680006444454 0.619611502603574
16.5840006452054 0.360781738907185
16.6000006459653 0.441466392768438
16.6160006467253 0.73624818112664
16.6320006474853 0.827913256198036
16.6480006482452 0.754027860271338
16.6640006490052 0.592681178213086
16.6800006497651 0.671840533702071
16.6960006505251 0.925372333271688
16.712000651285 0.738523603646539
16.728000652045 0.638057839545978
16.744000652805 0.85436346902199
16.7600006535649 0.720949294013825
16.7760006543249 0.485393913803516
16.7920006550848 0.618143889400086
16.8080006558448 0.736782072423328
16.8240006566048 0.679429178164863
16.8400006573647 0.81766813897659
16.8560006581247 1.05536454610464
16.8720006588846 0.926938076796437
16.8880006596446 0.666404469052508
16.9040006604046 0.541255490579482
16.9200006611645 0.472730364958186
16.9360006619245 0.779938775164373
16.9520006626844 0.773314988966955
16.9680006634444 0.544208101763354
16.9840006642044 0.64018965113852
17.0000006649643 0.809771348338788
17.0160006657243 0.87513611407715
17.0320006664842 0.904895636174632
17.0480006672442 0.915187021110507
17.0640006680042 0.672092752434112
17.0800006687641 0.478161289034285
17.0960006695241 0.523175260126012
17.112000670284 0.733759074499327
17.128000671044 0.761821594398476
17.1440006718039 0.822476800758637
17.1600006725639 0.904072723418186
17.1760006733239 0.688335135749006
17.1920006740838 0.488329345910346
17.2080006748438 0.529270899854613
17.2240006756037 0.882223156364152
17.2400006763637 0.791829414230778
17.2560006771237 0.394194056676737
17.2720006778836 0.509280057359433
17.2880006786436 0.566497864833247
17.3040006794035 0.423154340624593
17.3200006801635 0.663536499431782
17.3360006809235 0.775831052589074
17.3520006816834 0.702847563229285
17.3680006824434 0.761196047669682
17.3840006832033 0.766760497485214
17.4000006839633 0.672957957741709
17.4160006847233 0.630293218970891
17.4320006854832 0.737824541237788
17.4480006862432 0.711846716801336
17.4640006870031 1.00569645721021
17.4800006877631 1.02700135687159
17.4960006885231 0.674064158660033
17.512000689283 0.928766678306459
17.528000690043 0.999747532817667
17.5440006908029 1.18497940335062
17.5600006915629 1.06888694680416
17.5760006923228 0.79902696235922
17.5920006930828 0.966395689069241
17.6080006938428 1.04253796987797
17.6240006946027 1.12981121657846
17.6400006953627 1.41775183659971
17.6560006961226 1.60263508791948
17.6720006968826 1.20930895464138
17.6880006976426 1.16532468159776
17.7040006984025 1.34885769523344
17.7200006991625 1.60106945781981
17.7360006999224 2.05160426519584
17.7520007006824 1.88774766867869
17.7680007014424 1.49681719282478
17.7840007022023 1.39026152201371
17.8000007029623 1.36649679375787
17.8160007037222 1.45209249207184
17.8320007044822 1.10192563412113
17.8480007052422 1.1365071488258
17.8640007060021 1.44350470671564
17.8800007067621 0.951404109872013
17.896000707522 0.777874580555711
17.912000708282 0.995512827902817
17.9280007090419 1.01432011294038
17.9440007098019 0.869060001652495
17.9600007105619 1.08801887853464
17.9760007113218 1.18857106252275
17.9920007120818 0.711200795845505
18.0080007128417 0.736750128116997
18.0240007136017 0.90399777112616
18.0400007143617 1.06006139180878
18.0560007151216 0.948928123983973
18.0720007158816 0.737367283217179
18.0880007166415 0.793415875821971
18.1040007174015 0.862329645769033
18.1200007181615 0.75415292304374
18.1360007189214 0.707921676569932
18.1520007196814 0.846955358796159
18.1680007204413 0.678793562636428
18.1840007212013 0.660045304311183
18.2000007219613 0.743047237556001
18.2160007227212 0.830551404130171
18.2320007234812 1.06205029154425
18.2480007242411 1.17396467897498
18.2640007250011 1.0087510281765
18.2800007257611 0.835277009970163
18.296000726521 0.738802961461365
18.312000727281 0.871404265150071
18.3280007280409 0.88482642047351
18.3440007288009 0.823402901101264
18.3600007295608 0.89479574824778
18.3760007303208 0.879185586072322
18.3920007310808 0.963256946547283
18.4080007318407 0.776201784065456
18.4240007326007 0.853498994650007
18.4400007333606 1.09557133530017
18.4560007341206 1.01772511962549
18.4720007348806 1.05671249022691
18.4880007356405 0.928538298764387
18.5040007364005 0.795153007554005
18.5200007371604 0.872262289604702
18.5360007379204 0.980734978028407
18.5520007386804 0.886062794800642
18.5680007394403 0.876885458722216
18.5840007402003 0.87687410679065
18.6000007409602 0.903306051976207
18.6160007417202 1.05456691725087
18.6320007424802 1.13678109064376
18.6480007432401 0.879677178606099
18.6640007440001 0.837142185909483
18.68000074476 1.19932149231863
18.69600074552 1.13121013889839
18.71200074628 1.08514485130827
18.7280007470399 1.12123118825559
18.7440007477999 0.934311755122596
18.7600007485598 0.963880891309947
18.7760007493198 1.00904015281547
18.7920007500797 1.07388141315555
18.8080007508397 0.988403490574205
18.8240007515997 0.700751225461117
18.8400007523596 0.764862833893475
18.8560007531196 0.795049240186356
18.8720007538795 0.794389594819729
18.8880007546395 0.64373809498458
18.9040007553995 0.676548686167139
18.9200007561594 0.632605938435835
18.9360007569194 0.600011070034536
18.9520007576793 0.674134948263673
18.9680007584393 0.577048860273493
18.9840007591993 0.716563472248432
19.0000007599592 0.734893565046909
19.0160007607192 0.503432928325568
19.0320007614791 0.32544007551085
19.0480007622391 0.50613810953622
19.0640007629991 0.733167658119156
19.080000763759 0.814195378492824
19.096000764519 0.703398065412904
19.1120007652789 0.851280572141325
19.1280007660389 1.0257277737365
19.1440007667989 0.923751518274468
19.1600007675588 0.964052747148483
19.1760007683188 0.706063147061389
19.1920007690787 0.607754821530301
19.2080007698387 0.899495635488431
19.2240007705986 0.936695324775926
19.2400007713586 0.924392983301239
19.2560007721186 0.889901621904418
19.2720007728785 0.838828988546003
19.2880007736385 0.929055235763501
19.3040007743984 0.863121678707001
19.3200007751584 0.64563079006464
19.3360007759184 0.998572338059199
19.3520007766783 1.15594374238254
19.3680007774383 1.03465147875222
19.3840007781982 0.999801748377997
19.4000007789582 0.912733454575814
19.4160007797182 1.17846919655775
19.4320007804781 1.27492716906752
19.4480007812381 1.16569714760817
19.464000781998 1.07706430574509
19.480000782758 1.11303534719264
19.496000783518 1.0887409631154
19.5120007842779 1.49450567035816
19.5280007850379 1.75699532555612
19.5440007857978 1.706550021485
19.5600007865578 2.16831124778538
19.5760007873177 2.50149566175886
19.5920007880777 2.79072234905135
19.6080007888377 2.90984374151451
19.6240007895976 3.03766780097733
19.6400007903576 3.33182075142419
19.6560007911175 3.48753172822351
19.6720007918775 3.95092792785286
19.6880007926375 4.48825374591358
19.7040007933974 4.85374898556999
19.7200007941574 5.24179112643424
19.7360007949173 5.66829848320167
19.7520007956773 5.95183525747395
19.7680007964373 6.60542236837608
19.7840007971972 7.0804945865228
19.8000007979572 7.49701768842421
19.8160007987171 7.58084931384837
19.8320007994771 7.16897499929952
19.8480008002371 7.60483953719303
19.864000800997 7.66990262161906
19.880000801757 7.63192683467896
19.8960008025169 7.43289697384623
19.9120008032769 6.82495445943634
19.9280008040369 6.71009405984254
19.9440008047968 6.59254185718474
19.9600008055568 6.17372273631323
19.9760008063167 6.11048376234707
19.9920008070767 5.81815309873629
20.0080008078366 5.34775830955356
20.0240008085966 5.23233770375171
20.0400008093566 5.31484610428751
20.0560008101165 5.4774519855614
20.0720008108765 5.16515052610174
20.0880008116364 5.01912305522033
20.1040008123964 4.96790817100627
20.1200008131564 5.22634503561655
20.1360008139163 5.21121871153022
20.1520008146763 4.67271255011602
20.1680008154362 4.95830504571876
20.1840008161962 4.99588495612146
20.2000008169562 4.34541068393688
20.2160008177161 4.20808041461298
20.2320008184761 4.39025025843361
20.248000819236 4.43987565771272
20.264000819996 4.5184556455682
20.280000820756 4.23044332274413
20.2960008215159 4.07114667472835
20.3120008222759 4.41130451097731
20.3280008230358 4.21795786716976
20.3440008237958 4.38068814260134
20.3600008245558 4.38389314872851
20.3760008253157 4.22331612847927
20.3920008260757 4.30954913780782
20.4080008268356 4.20919006627063
20.4240008275956 4.21914967956552
20.4400008283555 4.15819068493326
20.4560008291155 4.21605123468162
20.4720008298755 4.12551940028759
20.4880008306354 3.66274745530707
20.5040008313954 3.60774463405095
20.5200008321553 3.93806924399227
20.5360008329153 3.75258930540123
20.5520008336753 3.97016967557451
20.5680008344352 4.38590568245936
20.5840008351952 4.36156765429147
20.6000008359551 4.15562856695772
20.6160008367151 4.06037736928075
20.6320008374751 4.33709238048677
20.648000838235 4.77049431332795
20.664000838995 4.78339352022676
20.6800008397549 4.60511468820184
20.6960008405149 5.38087073404023
20.7120008412749 6.00966553990715
20.7280008420348 6.84211158071925
20.7440008427948 8.23918877845705
20.7600008435547 10.5229736880789
20.7760008443147 13.818678952666
20.7920008450747 18.0434747411116
20.8080008458346 24.217528424646
20.8240008465946 27.309941411165
20.8400008473545 23.9449409534697
20.8560008481145 19.3905763170388
20.8720008488744 16.6905905734466
20.8880008496344 13.4259159700772
20.9040008503944 9.12604169700895
20.9200008511543 6.347860375618
20.9360008519143 5.3184660852191
20.9520008526742 4.64369287431964
20.9680008534342 4.45644081365814
20.9840008541942 4.33811580126372
21.0000008549541 4.21445233366005
21.0160008557141 3.96149755425605
21.032000856474 3.67204703668687
21.048000857234 3.39380608651484
21.064000857994 3.48531674081554
21.0800008587539 3.18610307839119
21.0960008595139 2.76503100122916
21.1120008602738 3.0644924125126
21.1280008610338 3.00937861481955
21.1440008617938 3.13191654396961
21.1600008625537 3.3566777385271
21.1760008633137 2.7661206099128
21.1920008640736 2.5235734988473
21.2080008648336 2.87151973268059
21.2240008655935 2.95368550231214
21.2400008663535 2.86725290897447
21.2560008671135 2.68893399304582
21.2720008678734 2.70617334211415
21.2880008686334 2.89714297128309
21.3040008693933 3.0687036273637
21.3200008701533 2.95748996212322
21.3360008709133 2.80616602335896
21.3520008716732 2.77799222422609
21.3680008724332 2.82841666236819
21.3840008731931 3.08787279260551
21.4000008739531 3.00036905141983
21.4160008747131 2.85477963107623
21.432000875473 2.79327804156273
21.448000876233 2.74680552292884
21.4640008769929 2.93342595893648
21.4800008777529 2.761177983975
21.4960008785129 2.89636498443892
21.5120008792728 2.92186429619155
21.5280008800328 3.06294351722168
21.5440008807927 2.90015724699028
21.5600008815527 2.44039899206693
21.5760008823127 2.89484805890104
21.5920008830726 2.96072104334611
21.6080008838326 2.69818212583919
21.6240008845925 2.50056658861117
21.6400008853525 2.26539582714168
21.6560008861124 2.39523832429228
21.6720008868724 2.50902158676415
21.6880008876324 2.51882131437945
21.7040008883923 2.50320361049856
21.7200008891523 2.50002832387611
21.7360008899122 2.51068803430305
21.7520008906722 2.62504139469289
21.7680008914322 2.43070378469236
21.7840008921921 2.21516662568281
21.8000008929521 2.16162022136723
21.816000893712 1.92091448328246
21.832000894472 1.75099264652238
21.848000895232 2.05362311580217
21.8640008959919 2.4761809484117
21.8800008967519 2.69103453781482
21.8960008975118 2.65136374288344
21.9120008982718 2.62204446728137
21.9280008990318 2.71475756064794
21.9440008997917 2.92747476781972
21.9600009005517 2.71095681039181
21.9760009013116 2.48077274468765
21.9920009020716 2.62261516230134
22.0080009028316 2.3961642661102
22.0240009035915 2.10693666602976
22.0400009043515 2.3945727350679
22.0560009051114 2.47169636973139
22.0720009058714 2.0774704305463
22.0880009066313 1.83762852893401
22.1040009073913 1.8493237560993
22.1200009081513 1.93607430892424
22.1360009089112 1.80500633027287
22.1520009096712 1.70302084171506
22.1680009104311 1.79939405265842
22.1840009111911 1.83543426371162
22.2000009119511 1.96787560420745
22.216000912711 1.94445937340251
22.232000913471 1.67286077920207
22.2480009142309 1.54772312955877
22.2640009149909 1.59996457123388
22.2800009157509 1.90861250131798
22.2960009165108 1.87976766680461
22.3120009172708 1.70074405222474
22.3280009180307 1.59068910003631
22.3440009187907 1.65672168822785
22.3600009195507 1.6288883533908
22.3760009203106 1.41522224690011
22.3920009210706 1.47410067518422
22.4080009218305 1.45787249120576
22.4240009225905 1.78494684800425
22.4400009233504 1.58449011326347
22.4560009241104 1.43404185353977
22.4720009248704 1.47642726771784
22.4880009256303 1.38293862416052
22.5040009263903 1.56317488308426
22.5200009271502 1.45975440895812
22.5360009279102 1.5057732587882
22.5520009286702 1.53070562532397
22.5680009294301 1.54061311050885
22.5840009301901 1.69218799383469
22.60000093095 1.78494719623986
22.61600093171 1.74322413655979
22.63200093247 1.6726226492335
22.6480009332299 1.58898030892279
22.6640009339899 1.29215175458331
22.6800009347498 1.24830039073045
22.6960009355098 1.33408209060844
22.7120009362698 1.32884103004158
22.7280009370297 1.35921041831548
22.7440009377897 1.5010589917528
22.7600009385496 1.8707558954889
22.7760009393096 2.02081205244386
22.7920009400696 1.94929466977753
22.8080009408295 1.88281666670571
22.8240009415895 1.81265353720244
22.8400009423494 1.73588141106345
22.8560009431094 1.76559552484914
22.8720009438693 1.71035789134499
22.8880009446293 1.68210233265628
22.9040009453893 1.845815867505
22.9200009461492 1.72214244917718
22.9360009469092 1.51047607199595
22.9520009476691 1.66242001274596
22.9680009484291 1.7163477502916
22.9840009491891 1.3416872130527
23.000000949949 1.25979398593161
23.016000950709 1.27993434692624
23.0320009514689 1.43274681993678
23.0480009522289 1.46252582115327
23.0640009529889 1.05455693882382
23.0800009537488 1.28542873363153
23.0960009545088 1.36647384220499
23.1120009552687 1.52252238615903
23.1280009560287 1.7900732872012
23.1440009567887 1.4134963238032
23.1600009575486 1.14600371573788
23.1760009583086 1.46587587383837
23.1920009590685 1.32167159835394
23.2080009598285 1.0722341603066
23.2240009605885 1.24122139953011
23.2400009613484 1.26574944763438
23.2560009621084 1.37696162699974
23.2720009628683 1.44885541934253
23.2880009636283 1.3161759349886
23.3040009643882 1.34395048829305
23.3200009651482 1.36112514033039
23.3360009659082 1.28676768365355
23.3520009666681 1.55747236691314
23.3680009674281 1.77132613323056
23.384000968188 1.6586912992733
23.400000968948 1.41681495641899
23.416000969708 1.60806202540404
23.4320009704679 1.42074672694434
23.4480009712279 1.35681972283903
23.4640009719878 1.41912390872062
23.4800009727478 1.19217700904785
23.4960009735078 1.21929988226356
23.5120009742677 1.32004574246256
23.5280009750277 1.6713559768351
23.5440009757876 1.48839899812116
23.5600009765476 1.59437823407893
23.5760009773076 1.84290762575669
23.5920009780675 1.68390061631553
23.6080009788275 1.81318525918726
23.6240009795874 1.72193693127631
23.6400009803474 1.66278838724623
23.6560009811074 2.10172526668047
23.6720009818673 2.12536517324047
23.6880009826273 1.80238135461643
23.7040009833872 1.67980815846091
23.7200009841472 1.55891601176672
23.7360009849071 1.6983229800921
23.7520009856671 1.49455955188944
23.7680009864271 1.45261001869289
23.784000987187 1.69574270043054
23.800000987947 1.6113431744778
23.8160009887069 1.19349159969303
23.8320009894669 1.07955136865545
23.8480009902269 1.38014649227124
23.8640009909868 1.35500598165759
23.8800009917468 1.56051857015247
23.8960009925067 1.4140892156751
23.9120009932667 1.01503095499586
23.9280009940267 1.0357235738703
23.9440009947866 1.2199925242689
23.9600009955466 1.43151590322209
23.9760009963065 1.70555272692543
23.9920009970665 1.86741289989095
24.0080009978265 1.89352278502117
24.0240009985864 1.85061102209352
24.0400009993464 1.53227345378694
24.0560010001063 1.71110294473049
24.0720010008663 1.50363949565128
24.0880010016262 1.15859843739621
24.1040010023862 1.24015512644021
24.1200010031462 1.22132448632033
24.1360010039061 1.26605194052748
24.1520010046661 1.29372684735083
24.168001005426 1.48312771034517
24.184001006186 1.34527801855438
24.200001006946 1.38950183500129
24.2160010077059 1.6050608257152
24.2320010084659 1.4365569674846
24.2480010092258 1.44243070959583
24.2640010099858 1.87192317017956
24.2800010107458 1.82571611963161
24.2960010115057 1.70052565964411
24.3120010122657 1.59942361363384
24.3280010130256 1.25618204203339
24.3440010137856 1.59852627323702
24.3600010145456 1.93285602143533
24.3760010153055 1.72024185793757
24.3920010160655 1.58465895136248
24.4080010168254 1.33770425157625
24.4240010175854 1.652195267557
24.4400010183454 1.97252626326122
24.4560010191053 1.41954419949764
24.4720010198653 1.71253854113598
24.4880010206252 1.98735227567684
24.5040010213852 1.94116083947097
24.5200010221451 2.42642747473221
24.5360010229051 2.44292859377199
24.5520010236651 2.13490307907892
24.568001024425 2.17777909512546
24.584001025185 2.21816647920714
24.6000010259449 2.51165381626426
24.6160010267049 2.6007348953962
24.6320010274649 2.48210024946303
24.6480010282248 2.88881785829324
24.6640010289848 3.45804552796571
24.6800010297447 3.37594525114671
24.6960010305047 3.823155011334
24.7120010312647 4.41417950846513
24.7280010320246 4.38351252805376
24.7440010327846 5.32448839813562
24.7600010335445 6.01646956578465
24.7760010343045 6.54933078478042
24.7920010350645 8.05667041312206
24.8080010358244 9.75427528098806
24.8240010365844 10.7791621928817
24.8400010373443 10.5769187579822
24.8560010381043 10.1331845113501
24.8720010388643 9.93660722807914
24.8880010396242 8.99494593059728
24.9040010403842 8.26186198573821
24.9200010411441 7.27893057488798
24.9360010419041 6.44037882147665
24.952001042664 5.9868719331507
24.968001043424 5.37056998348593
24.984001044184 4.98931547355253
25.0000010449439 4.36928091498445
25.0160010457039 3.87442634799245
25.0320010464638 3.47732586352153
25.0480010472238 3.69738322442411
25.0640010479838 3.99766373897213
25.0800010487437 3.89706010229568
25.0960010495037 3.65084442386576
25.1120010502636 3.35440607126989
25.1280010510236 3.64377323571162
25.1440010517836 3.30129545079738
25.1600010525435 2.86425648341726
25.1760010533035 3.27572555173923
25.1920010540634 3.46254357742693
25.2080010548234 3.38009870386546
25.2240010555834 3.43081579364996
25.2400010563433 4.0980573814628
25.2560010571033 4.31673075217046
25.2720010578632 4.028006309145
25.2880010586232 3.81001968503652
25.3040010593832 3.61152961782256
25.3200010601431 3.83810948171463
25.3360010609031 3.75181260039898
25.352001061663 3.10852821357271
25.368001062423 2.70354557321955
25.3840010631829 2.77421930633496
25.4000010639429 2.65066416716929
25.4160010647029 2.42537697236603
25.4320010654628 2.34350486753076
25.4480010662228 2.14965471252053
25.4640010669827 2.25210355288145
25.4800010677427 2.02472195647909
25.4960010685027 1.68656308194472
25.5120010692626 1.799783675845
25.5280010700226 1.8956344951621
25.5440010707825 2.02608908851534
25.5600010715425 2.32474112989654
25.5760010723025 2.51585845687695
25.5920010730624 2.10255437401238
25.6080010738224 1.97168849019587
25.6240010745823 2.00522557920862
25.6400010753423 1.75699090902173
25.6560010761023 1.75346236628634
25.6720010768622 2.03244943190269
25.6880010776222 1.98170752097583
25.7040010783821 1.72132047599087
25.7200010791421 1.89952578042919
25.736001079902 1.79008671729528
25.752001080662 1.77948534622626
25.768001081422 2.19055032703122
25.7840010821819 2.14410899266135
25.8000010829419 1.98055457767423
25.8160010837018 1.99499207211621
25.8320010844618 2.13286898700561
25.8480010852218 1.95617409533135
25.8640010859817 1.89769270552553
25.8800010867417 1.91749720260636
25.8960010875016 1.65564203492796
25.9120010882616 1.90367473211081
25.9280010890216 1.74193976932751
25.9440010897815 1.67060120757954
25.9600010905415 1.91301028315991
25.9760010913014 1.91079986371679
25.9920010920614 1.9988626330516
26.0080010928214 2.3011653116926
26.0240010935813 2.10604870988429
26.0400010943413 1.87836970506633
26.0560010951012 2.05761760457339
26.0720010958612 1.92501181722135
26.0880010966212 1.74633162766337
26.1040010973811 1.98952162724922
26.1200010981411 2.11246371657018
26.136001098901 2.14796670038134
26.152001099661 2.56606072665074
26.1680011004209 2.35124256565222
26.1840011011809 2.06480955293791
26.2000011019409 2.2560833253911
26.2160011027008 2.52548662319688
26.2320011034608 2.65273790290033
26.2480011042207 3.0283820825193
26.2640011049807 3.13262984997334
26.2800011057407 3.07087558519063
26.2960011065006 3.50187470399654
26.3120011072606 3.83931318733199
26.3280011080205 3.65176242686749
26.3440011087805 4.12975795738199
26.3600011095405 4.59058813180368
26.3760011103004 4.7203065793788
26.3920011110604 5.3782293933622
26.4080011118203 5.78201010793405
26.4240011125803 6.56125272732354
26.4400011133403 7.58657271154178
26.4560011141002 8.72832148878813
26.4720011148602 10.5596242299664
26.4880011156201 13.0901119373804
26.5040011163801 17.3228057894916
26.5200011171401 23.9786341164513
26.5360011179 32.8047802358429
26.55200111866 46.7894917124589
26.5680011194199 67.7351843224874
26.5840011201799 91.9198105764996
26.6000011209398 105.2656182855
26.6160011216998 93.45635639632
26.6320011224598 71.8553001454567
26.6480011232197 63.0444397793513
26.6640011239797 60.2675694513129
26.6800011247396 50.609410402509
26.6960011254996 34.5641809451444
26.7120011262596 21.8797988582284
26.7280011270195 15.589122155837
26.7440011277795 11.6781725875294
26.7600011285394 9.76788061126718
26.7760011292994 8.62082657282665
26.7920011300594 7.85930701215696
26.8080011308193 6.97801995350367
26.8240011315793 6.06462888019592
26.8400011323392 5.78466721970648
26.8560011330992 5.1874270150495
26.8720011338592 4.40224201090757
26.8880011346191 3.78571255689298
26.9040011353791 3.27879809641634
26.920001136139 3.17296452314812
26.936001136899 2.91063409035999
26.952001137659 3.03008007805262
26.9680011384189 2.94564569578737
26.9840011391789 2.5190686404533
27.0000011399388 2.32684174898131
27.0160011406988 2.03471327034641
27.0320011414587 2.05683523891686
27.0480011422187 2.11071402066119
27.0640011429787 1.92461525402075
27.0800011437386 2.03767313796524
27.0960011444986 2.06409307807593
27.1120011452585 1.80984108574665
27.1280011460185 1.73202231566759
27.1440011467785 1.76931626025805
27.1600011475384 2.22199781450021
27.1760011482984 2.10351766278264
27.1920011490583 1.59391890797268
27.2080011498183 1.84593743577773
27.2240011505783 1.97756233318426
27.2400011513382 1.83021939126017
27.2560011520982 1.68480173365541
27.2720011528581 1.76518240873907
27.2880011536181 1.68052365901967
27.3040011543781 1.58462378707285
27.320001155138 2.0058334847328
27.336001155898 1.8819070388999
27.3520011566579 1.66804414127117
27.3680011574179 1.79371935301921
27.3840011581778 2.06429114779824
27.4000011589378 2.28034053441404
27.4160011596978 1.86267748824119
27.4320011604577 1.90787574880573
27.4480011612177 2.11701882805763
27.4640011619776 1.89543830329435
27.4800011627376 1.94817347530237
27.4960011634976 2.16040025794318
27.5120011642575 1.93290210528089
27.5280011650175 1.75644210689253
27.5440011657774 2.20837107440271
27.5600011665374 2.42643939923051
27.5760011672974 1.85582870475816
27.5920011680573 1.47923039661729
27.6080011688173 1.89657639500375
27.6240011695772 2.09109458821549
27.6400011703372 2.12146938688925
27.6560011710972 2.08226639587315
27.6720011718571 2.57363280752664
27.6880011726171 3.41020175859548
27.704001173377 4.60202077742028
27.720001174137 5.85847367798878
27.7360011748969 4.8650718685447
27.7520011756569 3.55759839051691
27.7680011764169 3.54620079752166
27.7840011771768 3.76406751056905
27.8000011779368 4.04230022653839
27.8160011786967 2.91455640617203
27.8320011794567 1.99105402554441
27.8480011802167 2.29276959076331
27.8640011809766 2.19642699225616
27.8800011817366 2.25147691676343
27.8960011824965 2.2097944240316
27.9120011832565 2.07227644678167
27.9280011840165 2.35187814353791
27.9440011847764 2.56160198791023
27.9600011855364 4.19272996460708
27.9760011862963 6.03188882722981
27.9920011870563 4.5402860804485
28.0080011878163 2.56292147953715
28.0240011885762 2.3600206591346
28.0400011893362 3.29163500393503
28.0560011900961 3.27494753305342
28.0720011908561 1.88415875905067
28.0880011916161 1.34542574884669
28.104001192376 1.3995169341157
28.120001193136 1.14120810146629
28.1360011938959 1.02468619665098
28.1520011946559 1.33154046974703
28.1680011954158 1.26987219221767
28.1840011961758 1.08432960943074
28.2000011969358 0.995785981273307
28.2160011976957 1.09798075364876
28.2320011984557 1.11973572077226
28.2480011992156 1.26629316561471
28.2640011999756 1.20240463964045
28.2800012007356 1.14447947682882
28.2960012014955 1.29270442048102
28.3120012022555 1.03060363737137
28.3280012030154 0.998283584298687
28.3440012037754 1.28910447009892
28.3600012045354 1.58234501715847
28.3760012052953 2.11168578316399
28.3920012060553 2.13911893700505
28.4080012068152 1.57351064090653
28.4240012075752 1.44656008862159
28.4400012083352 1.21426834361575
28.4560012090951 1.135165807132
28.4720012098551 1.57328856066424
28.488001210615 1.25273824175138
28.504001211375 0.838960032780386
28.520001212135 1.04186747687635
28.5360012128949 0.883186969281193
28.5520012136549 0.757315346856105
28.5680012144148 0.855933347829466
28.5840012151748 0.848510054040839
28.6000012159347 0.640360347318149
28.6160012166947 0.635368676957442
28.6320012174547 0.642923113666375
28.6480012182146 0.676396183577902
28.6640012189746 0.995220748441279
28.6800012197345 1.15454016272189
28.6960012204945 1.02173364900145
28.7120012212545 0.702673845009485
28.7280012220144 0.602177703666793
28.7440012227744 0.676886536383673
28.7600012235343 0.858274979598679
28.7760012242943 0.817200140795724
28.7920012250543 0.842463795611549
28.8080012258142 0.855948046329062
28.8240012265742 0.640003761133089
28.8400012273341 0.512218051991509
28.8560012280941 0.475610759554003
28.8720012288541 0.787446745561871
28.888001229614 0.886389979079225
28.904001230374 0.594207629014441
28.9200012311339 0.542256861091942
28.9360012318939 0.698483886237944
28.9520012326538 0.634675350005296
28.9680012334138 0.695048305661737
28.9840012341738 0.876228035571762
29.0000012349337 0.975014178210367
29.0160012356937 1.01604887951341
29.0320012364536 1.14261318960365
29.0480012372136 0.953576085616934
29.0640012379736 0.859197935883233
29.0800012387335 0.801463316640421
29.0960012394935 0.730494658423657
29.1120012402534 0.894143083134199
29.1280012410134 1.05558116276443
29.1440012417734 1.12700413663977
29.1600012425333 0.847870426380551
29.1760012432933 1.1112329777388
29.1920012440532 1.02142726272763
29.2080012448132 0.564232330773564
29.2240012455732 0.699924094669632
29.2400012463331 0.75498581181249
29.2560012470931 0.647588611335827
29.272001247853 0.679624647907779
29.288001248613 0.666821346941088
29.304001249373 0.50647744878801
29.3200012501329 0.357333438057415
29.3360012508929 0.581119334066415
29.3520012516528 0.676151694579312
29.3680012524128 0.699021659012307
29.3840012531727 0.736125684879559
29.4000012539327 0.593083493823628
29.4160012546927 0.613817146633545
29.4320012554526 0.340173227602677
29.4480012562126 0.497199986295925
29.4640012569725 0.75874475607363
29.4800012577325 0.650072420069112
29.4960012584925 0.795279643859121
29.5120012592524 0.792239711520837
29.5280012600124 0.709127598967243
29.5440012607723 0.943415466675799
29.5600012615323 1.03776816710094
29.5760012622923 1.02415618145471
29.5920012630522 1.02810585810538
29.6080012638122 1.02467110966664
29.6240012645721 1.25486873170545
29.6400012653321 1.15766026743868
29.6560012660921 0.601189886333163
29.672001266852 0.643200477620046
29.688001267612 0.961286211450384
29.7040012683719 0.800864110129695
29.7200012691319 0.771872059032663
29.7360012698919 0.777378072018713
29.7520012706518 1.03116349580324
29.7680012714118 1.22164490976841
29.7840012721717 0.942704960732694
29.8000012729317 1.00624389918606
29.8160012736916 1.22310027395281
29.8320012744516 1.18004158800065
29.8480012752116 1.14638361692834
29.8640012759715 1.15750355533146
29.8800012767315 1.03509698348999
29.8960012774914 0.861731296522016
29.9120012782514 1.24604602391947
29.9280012790114 1.22979390386329
29.9440012797713 1.02180884448759
29.9600012805313 1.14027500450632
29.9760012812912 1.06319913193155
29.9920012820512 0.935367387408474
30.0080012828112 0.854498382935224
30.0240012835711 0.938822713417378
30.0400012843311 0.793276954600541
30.056001285091 0.769948428428424
30.072001285851 1.14110628372848
30.088001286611 1.03214157700232
30.1040012873709 0.486593790834735
30.1200012881309 0.51674503649523
30.1360012888908 0.8108096804153
30.1520012896508 0.954005063139864
30.1680012904107 0.854652883819138
30.1840012911707 0.811541505037409
30.2000012919307 0.685801100411722
30.2160012926906 0.705914478217864
30.2320012934506 1.08183318555206
30.2480012942105 0.970093264163048
30.2640012949705 1.16092484025352
30.2800012957305 1.14075450983998
30.2960012964904 0.599407318427653
30.3120012972504 0.846244486991948
30.3280012980103 0.888008618802473
30.3440012987703 1.0193386943646
30.3600012995303 1.17640209966434
30.3760013002902 1.036983376634
30.3920013010502 1.02700462931443
30.4080013018101 1.11718234200704
30.4240013025701 1.36151067970147
30.4400013033301 1.34630691771672
30.45600130409 1.3952911450521
30.47200130485 1.0937143006082
30.4880013056099 0.896194271968251
30.5040013063699 0.948672718718927
30.5200013071299 0.869133656843802
30.5360013078898 1.01550387573962
30.5520013086498 0.908809547685898
30.5680013094097 0.604876909980674
30.5840013101697 0.674990454853162
30.6000013109296 0.963014637869319
30.6160013116896 0.708640574011623
30.6320013124496 0.680792973894768
30.6480013132095 0.781213838729619
30.6640013139695 0.833978147763351
30.6800013147294 0.846481869513919
30.6960013154894 0.630223852939039
30.7120013162494 0.65825898186513
30.7280013170093 0.494722822997115
30.7440013177693 0.526855537591585
30.7600013185292 0.620020036387412
30.7760013192892 0.624202430506292
30.7920013200492 0.647473303724497
30.8080013208091 0.714282548318915
30.8240013215691 0.752977932600174
30.840001322329 0.641174295848703
30.856001323089 0.796360162005357
30.872001323849 0.710446575647537
30.8880013246089 0.564611414746265
30.9040013253689 0.644280584348157
30.9200013261288 0.777536131605877
30.9360013268888 0.859679094881774
30.9520013276488 0.758683433755852
30.9680013284087 0.686908761172029
30.9840013291687 0.813697487882521
31.0000013299286 1.05887043225077
31.0160013306886 0.816136250951735
31.0320013314485 1.00591605170343
31.0480013322085 1.04485061286488
31.0640013329685 0.819733591563802
31.0800013337284 0.815275913766897
31.0960013344884 0.985921126959457
31.1120013352483 1.3905613064765
31.1280013360083 1.0553951046993
31.1440013367683 0.935923843538455
31.1600013375282 0.961816499022303
31.1760013382882 1.0248991520347
31.1920013390481 1.33213990863498
31.2080013398081 0.896662838853559
31.2240013405681 0.938102772301985
31.240001341328 0.994008366587877
31.256001342088 0.861896026035028
31.2720013428479 0.963180427100699
31.2880013436079 1.00337054733771
31.3040013443679 0.94621239690257
31.3200013451278 0.873911659436629
31.3360013458878 0.645844770392546
31.3520013466477 0.42254804570981
31.3680013474077 0.748306695473533
31.3840013481677 0.747352171117417
31.4000013489276 0.875534478906164
31.4160013496876 1.11253779885929
31.4320013504475 0.941015939095391
31.4480013512075 1.08978100401639
31.4640013519674 1.02096072501018
31.4800013527274 0.65815879640265
31.4960013534874 0.59642949698211
31.5120013542473 0.587414976077662
31.5280013550073 0.694050417594551
31.5440013557672 0.914995269574555
31.5600013565272 0.858927025362282
31.5760013572872 0.750976119110883
31.5920013580471 0.900033542025483
31.6080013588071 0.811243298873557
31.624001359567 0.791379197302478
31.640001360327 0.688404214556797
31.656001361087 0.634083924712209
31.6720013618469 0.696592514088616
31.6880013626069 0.501366895809497
31.7040013633668 0.562459450280635
31.7200013641268 0.670858131586479
31.7360013648868 0.545991828395549
31.7520013656467 0.630961857371767
31.7680013664067 0.878071253070274
31.7840013671666 0.664630821523096
31.8000013679266 0.481701033541007
31.8160013686865 0.76605878087846
31.8320013694465 0.893329662932546
31.8480013702065 0.844180771087888
31.8640013709664 0.745508209633356
31.8800013717264 0.553948706602594
31.8960013724863 0.881516640417829
31.9120013732463 0.798428705621866
31.9280013740063 0.859504404697416
31.9440013747662 0.88881215384531
31.9600013755262 0.829478192774953
31.9760013762861 1.13371628244561
31.9920013770461 0.78337038869874
32.0080013778061 0.773763962873588
32.024001378566 0.778942766675899
32.040001379326 0.755427366613296
32.0560013800859 0.955145641643608
32.0720013808459 0.830641800047159
32.0880013816059 0.559579088273645
32.1040013823658 0.537929028204575
32.1200013831258 0.635065193808538
32.1360013838857 0.79019632083632
32.1520013846457 0.805181592437303
32.1680013854057 0.641673958359103
32.1840013861656 0.614197530517333
32.2000013869256 0.843111939053827
32.2160013876855 0.889898041649858
32.2320013884455 0.55030442591065
32.2480013892054 0.357646645086853
32.2640013899654 0.408823292643836
32.2800013907254 0.621779456598842
32.2960013914853 0.773250762757097
32.3120013922453 0.591434364653955
32.3280013930052 0.70112548355173
32.3440013937652 0.779257237203182
32.3600013945252 0.590980875526252
32.3760013952851 0.615318905489124
32.3920013960451 0.551734587179971
32.408001396805 0.527940996734353
32.424001397565 0.46264366741893
32.440001398325 0.426535458349877
32.4560013990849 0.680378868143587
32.4720013998449 0.856554312169415
32.4880014006048 0.585809062201695
32.5040014013648 0.708225566408278
32.5200014021248 0.726549254402438
32.5360014028847 0.481204309446141
32.5520014036447 0.595484818736846
32.5680014044046 0.494601647835928
32.5840014051646 0.446874201757987
32.6000014059246 0.672856166532852
32.6160014066845 0.64267702190069
32.6320014074445 0.618089922494545
32.6480014082044 0.7219924307531
32.6640014089644 0.596735166520633
32.6800014097243 0.647548352773363
32.6960014104843 0.773373629396577
32.7120014112443 0.546408705661741
32.7280014120042 0.527111983984125
32.7440014127642 0.912084237230916
32.7600014135241 0.844603635651689
32.7760014142841 0.774820382351511
32.7920014150441 0.776968126552137
32.808001415804 0.592585603765753
32.824001416564 0.949582712258595
32.8400014173239 0.934137942341195
32.8560014180839 0.714646622838743
32.8720014188439 0.612836379982642
32.8880014196038 0.380144399741755
32.9040014203638 0.519928060111993
32.9200014211237 0.609473387962391
32.9360014218837 0.751169776546385
32.9520014226437 0.657756214991327
32.9680014234036 0.522348576521787
32.9840014241636 0.57755171853366
33.0000014249235 0.586320157763667
33.0160014256835 0.683836220139126
33.0320014264435 0.606224658809211
33.0480014272034 0.524118820504431
33.0640014279634 0.589346018365588
33.0800014287233 0.661034009946986
33.0960014294833 0.7514145799211
33.1120014302432 0.81008834401097
33.1280014310032 0.677123857355267
33.1440014317632 0.544063343769139
33.1600014325231 0.533337110134698
33.1760014332831 0.778030586394745
33.192001434043 0.702316992651101
33.208001434803 0.599956531321703
33.224001435563 0.488531330021672
33.2400014363229 0.613049827143316
33.2560014370829 0.646171945206174
33.2720014378428 0.583021743518938
33.2880014386028 0.780999693913658
33.3040014393628 0.732368142108827
33.3200014401227 0.82573840018657
33.3360014408827 0.803781332816472
33.3520014416426 0.797539019814084
33.3680014424026 0.609173969998033
33.3840014431626 0.701400438912076
33.4000014439225 0.984601054248118
33.4160014446825 1.05489616941336
33.4320014454424 0.890660490288318
33.4480014462024 0.560443915608396
33.4640014469623 0.583985525415953
33.4800014477223 0.736339725300541
33.4960014484823 0.743546152576706
33.5120014492422 0.519621419393206
33.5280014500022 0.40283093566256
33.5440014507621 0.443526811265612
33.5600014515221 0.63069755485332
33.5760014522821 0.831710001684185
33.592001453042 0.668320845963238
33.608001453802 0.578573725318327
33.6240014545619 0.563334797432382
33.6400014553219 0.649322295848253
33.6560014560819 0.628311965297045
33.6720014568418 0.763341405875991
33.6880014576018 0.870051474634961
33.7040014583617 0.529039617681613
33.7200014591217 0.531472417004201
33.7360014598817 0.590167232981964
33.7520014606416 0.490840968104527
33.7680014614016 0.742507311929264
33.7840014621615 0.727442959127843
33.8000014629215 0.687023018137722
33.8160014636815 0.808014511188041
33.8320014644414 0.868839231942466
33.8480014652014 1.01656267912168
33.8640014659613 0.751022625432281
33.8800014667213 0.539627266528446
33.8960014674812 0.733858441746407
33.9120014682412 0.741422720302841
33.9280014690012 0.690355066883181
33.9440014697611 0.710692036036392
33.9600014705211 0.539818353660051
33.976001471281 0.676251599862319
33.992001472041 0.714745122649145
34.008001472801 0.556269111470551
34.0240014735609 0.413496531155124
34.0400014743209 0.398900298558561
34.0560014750808 0.690571008341339
34.0720014758408 0.710534210653846
34.0880014766008 0.715905202500468
34.1040014773607 0.678866547441223
34.1200014781207 0.860110932681998
34.1360014788806 0.974629290389754
34.1520014796406 0.556794671342335
34.1680014804006 0.836126637697144
34.1840014811605 0.955998103740909
34.2000014819205 0.766970055485141
34.2160014826804 0.839146510891909
34.2320014834404 0.971474901013198
34.2480014842004 0.967345294988709
34.2640014849603 0.765749919939005
34.2800014857203 0.961923884000617
34.2960014864802 0.89094863807312
34.3120014872402 1.0135410076133
34.3280014880001 1.35700978776139
34.3440014887601 1.20525097421484
34.3600014895201 1.0745435970362
34.37600149028 1.16949331048067
34.39200149104 1.36010106644362
34.4080014917999 1.25356152610145
34.4240014925599 1.47830215628603
34.4400014933199 1.68204656983946
34.4560014940798 1.70468182989019
34.4720014948398 2.08401263267859
34.4880014955997 1.89626243153073
34.5040014963597 1.72309381886858
34.5200014971197 1.87792301528112
34.5360014978796 1.96485535345593
34.5520014986396 2.11842089607373
34.5680014993995 2.03390758857166
34.5840015001595 2.1362510385908
34.6000015009195 2.1869976222924
34.6160015016794 2.25134489786705
34.6320015024394 2.67070065452867
34.6480015031993 2.57638087328543
34.6640015039593 2.59037206002455
34.6800015047193 3.07132145643787
34.6960015054792 2.87419274362471
34.7120015062392 2.76006243004714
34.7280015069991 3.07977054907574
34.7440015077591 3.38782370089666
34.760001508519 3.46641504371597
34.776001509279 3.20237984573335
34.792001510039 3.27562342879321
34.8080015107989 3.55734828363127
34.8240015115589 3.54789904985162
34.8400015123188 3.5294970913896
34.8560015130788 3.81270634104953
34.8720015138388 4.00241783448924
34.8880015145987 4.25893367625912
34.9040015153587 4.50590944042618
34.9200015161186 4.4389897824753
34.9360015168786 4.40182440821219
34.9520015176386 4.69136748625395
34.9680015183985 5.05494918087268
34.9840015191585 4.77817227709347
35.0000015199184 4.45653390668701
35.0160015206784 4.37960454268598
35.0320015214384 4.30739764763143
35.0480015221983 4.13685386568442
35.0640015229583 3.77545775756159
35.0800015237182 3.51941975741251
35.0960015244782 3.56637507150806
35.1120015252381 3.58217963757206
35.1280015259981 3.40918769840159
35.1440015267581 3.14424848853082
35.160001527518 2.77924269766048
35.176001528278 2.99749695067115
35.1920015290379 3.08706265720591
35.2080015297979 2.9742893398627
35.2240015305579 2.91613286606993
35.2400015313178 2.51874324827691
35.2560015320778 2.72394392614056
35.2720015328377 2.9392610446122
35.2880015335977 2.62204510851809
35.3040015343577 2.63160647948105
35.3200015351176 2.6647311810261
35.3360015358776 2.47643492292462
35.3520015366375 2.476346246433
35.3680015373975 2.63063398391278
35.3840015381575 2.60363620794913
35.4000015389174 2.41491344271258
35.4160015396774 2.28127511588488
35.4320015404373 2.51384763099698
35.4480015411973 2.81907985269973
35.4640015419573 2.68910299680637
35.4800015427172 2.59345352095369
35.4960015434772 2.51446191681874
35.5120015442371 2.43134811974375
35.5280015449971 2.36525064014597
35.544001545757 2.40133178261075
35.560001546517 2.47674035394437
35.576001547277 2.32622399368079
35.5920015480369 2.28602519425763
35.6080015487969 2.36923766215065
35.6240015495568 2.37064303362052
35.6400015503168 2.44260237264129
35.6560015510768 2.2613323560647
35.6720015518367 2.48285208530811
35.6880015525967 2.6819153778309
35.7040015533566 2.35879712540336
35.7200015541166 2.30408250906258
35.7360015548766 2.13058472419941
35.7520015556365 2.29222379700645
35.7680015563965 2.53013268828761
35.7840015571564 2.31300007455402
35.8000015579164 2.36310898876988
35.8160015586764 2.53645120643869
35.8320015594363 2.80155784100606
35.8480015601963 2.47765625378538
35.8640015609562 2.48029039116595
35.8800015617162 3.15425216878099
35.8960015624762 2.89132992895747
35.9120015632361 2.58191713186619
35.9280015639961 2.79853919614312
35.944001564756 2.748707463601
35.960001565516 2.5320928024693
35.9760015662759 2.44593141489634
35.9920015670359 2.47462803768952
36.0080015677959 2.3356342872449
36.0240015685558 2.34338935398022
36.0400015693158 2.06707914581168
36.0560015700757 2.13215180223343
36.0720015708357 2.397883962456
36.0880015715957 1.99364793843059
36.1040015723556 2.16473755713534
36.1200015731156 1.96559748455199
36.1360015738755 1.8737391367655
36.1520015746355 1.84947619598778
36.1680015753955 1.59438125948729
36.1840015761554 1.60496563514705
36.2000015769154 1.79859139116887
36.2160015776753 2.11619126088009
36.2320015784353 1.85915448461364
36.2480015791953 1.74394869904897
36.2640015799552 1.84344674321748
36.2800015807152 1.73241485916916
36.2960015814751 1.74903549526852
36.3120015822351 1.81576177592324
36.328001582995 2.09464052748197
36.344001583755 2.08653340253206
36.360001584515 1.98798051407959
36.3760015852749 2.03685621015065
36.3920015860349 2.42907083434498
36.4080015867948 2.9831569677982
36.4240015875548 3.18552770807214
36.4400015883148 3.64489080520836
36.4560015890747 4.37254502825503
36.4720015898347 5.71912335716608
36.4880015905946 7.19467495598457
36.5040015913546 7.66883356175565
36.5200015921146 6.81625660080341
36.5360015928745 5.28991075494447
36.5520015936345 4.68016422946522
36.5680015943944 4.74051839452781
36.5840015951544 4.83399868766779
36.6000015959144 4.71177357305691
36.6160015966743 4.12703653052431
36.6320015974343 3.39579299583427
36.6480015981942 2.72149472861426
36.6640015989542 1.975795183711
36.6800015997142 1.7883891742805
36.6960016004741 1.86961817453418
36.7120016012341 1.87878320578322
36.728001601994 1.90280522213853
36.744001602754 1.77672679778681
36.7600016035139 1.84454421086587
36.7760016042739 1.65554941534272
36.7920016050339 1.39795031679819
36.8080016057938 1.32523437200873
36.8240016065538 1.54176952313259
36.8400016073137 1.5243941569352
36.8560016080737 1.46490261592328
36.8720016088337 1.48789984992851
36.8880016095936 1.53416846658749
36.9040016103536 1.64439935564806
36.9200016111135 1.53579368348949
36.9360016118735 1.37786054958877
36.9520016126335 1.22331890104317
36.9680016133934 1.24590786152559
36.9840016141534 1.42846581539291
37.0000016149133 1.65579082732603
37.0160016156733 1.65773542098904
37.0320016164333 1.33814543519569
37.0480016171932 1.22187760091321
37.0640016179532 1.50591623094847
37.0800016187131 1.52170216382593
37.0960016194731 1.54746422586318
37.1120016202331 1.58107088923563
37.128001620993 1.56541997276588
37.144001621753 1.4227096303686
37.1600016225129 1.19416341238413
37.1760016232729 1.26688398579899
37.1920016240328 1.63902711320809
37.2080016247928 1.86415473206321
37.2240016255528 1.68119114162235
37.2400016263127 1.37045308313052
37.2560016270727 1.21448617665334
37.2720016278326 1.32276244709812
37.2880016285926 1.47448469998686
37.3040016293526 1.29068940674206
37.3200016301125 1.19000873913256
37.3360016308725 1.61045987420211
37.3520016316324 1.77579577812665
37.3680016323924 1.83584979113658
37.3840016331524 1.80401782284009
37.4000016339123 1.69552921378471
37.4160016346723 1.70190306650066
37.4320016354322 1.55174427049965
37.4480016361922 1.33995463944636
37.4640016369522 1.69572821826705
37.4800016377121 1.76955682833571
37.4960016384721 1.29963436800048
37.512001639232 1.48733490013789
37.528001639992 1.72651080147954
37.544001640752 1.64977503916874
37.5600016415119 2.04837816854925
37.5760016422719 2.30605909897817
37.5920016430318 2.33988936782537
37.6080016437918 2.49731972838308
37.6240016445517 2.18720407061339
37.6400016453117 2.15640781353003
37.6560016460717 2.473016236775
37.6720016468316 2.55106628365297
37.6880016475916 2.31591476894257
37.7040016483515 2.55726606198425
37.7200016491115 2.31652080748396
37.7360016498715 2.18540379036997
37.7520016506314 2.43728470477254
37.7680016513914 2.30053594480463
37.7840016521513 2.26177020482466
37.8000016529113 2.25343898399476
37.8160016536713 2.1899043777269
37.8320016544312 2.11140237918222
37.8480016551912 2.02131628611788
37.8640016559511 1.86186461595948
37.8800016567111 1.97373998082692
37.8960016574711 2.08792794163766
37.912001658231 1.81342234078405
37.928001658991 1.6898483521566
37.9440016597509 1.75212694592489
37.9600016605109 1.69023221314157
37.9760016612708 1.7984705509468
37.9920016620308 1.72309955422985
38.0080016627908 1.56893313643229
38.0240016635507 1.53073037334276
38.0400016643107 1.50773387328351
38.0560016650706 1.645845686622
38.0720016658306 1.56619415694969
38.0880016665906 1.59717271352301
38.1040016673505 1.58865859256975
38.1200016681105 1.68620951206127
38.1360016688704 1.81298668551092
38.1520016696304 1.83340210575154
38.1680016703904 1.84819132374242
38.1840016711503 1.88298359495823
38.2000016719103 1.99031425294968
38.2160016726702 1.79006316985289
38.2320016734302 1.87310253189824
38.2480016741902 2.03182412641757
38.2640016749501 2.01012588386058
38.2800016757101 2.17004628881255
38.29600167647 2.33136819634692
38.31200167723 2.14085651656014
38.32800167799 2.19147598673733
38.3440016787499 2.48212496919727
38.3600016795099 2.51547708427287
38.3760016802698 2.52810497947969
38.3920016810298 2.42225217294977
38.4080016817897 2.20776355232515
38.4240016825497 2.29640203425547
38.4400016833097 2.47094350641939
38.4560016840696 2.44667095490263
38.4720016848296 2.1510689763136
38.4880016855895 2.12438472155269
38.5040016863495 2.11009187173806
38.5200016871095 2.14867887867688
38.5360016878694 2.31530215813599
38.5520016886294 2.09792050702998
38.5680016893893 2.04881959510967
38.5840016901493 2.17621706158163
38.6000016909093 2.05725718782902
38.6160016916692 2.0865935907672
38.6320016924292 2.05066146486189
38.6480016931891 1.88418743878968
38.6640016939491 1.96400256750453
38.6800016947091 1.81790189846826
38.696001695469 1.79510631842193
38.712001696229 1.52581092308512
38.7280016969889 1.38027264932754
38.7440016977489 1.78616712492767
38.7600016985089 1.74007898040914
38.7760016992688 1.63111761023618
38.7920017000288 1.62359654827627
38.8080017007887 1.46088021504429
38.8240017015487 1.350325937304
38.8400017023086 1.37003131287798
38.8560017030686 1.45756592966284
38.8720017038286 1.54836752890152
38.8880017045885 1.69038665730916
38.9040017053485 1.58411796808399
38.9200017061084 1.31350637163372
38.9360017068684 1.40617300921496
38.9520017076284 1.18282397835794
38.9680017083883 1.29935769924503
38.9840017091483 1.54889228649721
39.0000017099082 1.33636834198892
39.0160017106682 1.12316464458064
39.0320017114282 0.987281314138086
39.0480017121881 1.24081305175637
39.0640017129481 1.3512779737927
39.080001713708 1.28200923602172
39.096001714468 1.29541735913949
39.112001715228 1.49162031700411
39.1280017159879 1.62369902690638
39.1440017167479 1.47229795758137
39.1600017175078 1.55106270815656
39.1760017182678 1.68882230010486
39.1920017190278 1.63512575185525
39.2080017197877 1.61892249662011
39.2240017205477 1.75591411471559
39.2400017213076 1.96644660742806
39.2560017220676 1.74996523303328
39.2720017228275 1.43935924891088
39.2880017235875 1.59848897803701
39.3040017243475 1.99608664437837
39.3200017251074 2.0686555562098
39.3360017258674 2.2427133566348
39.3520017266273 2.73973187898682
39.3680017273873 3.47894645210321
39.3840017281473 4.46311095793875
39.4000017289072 5.53951159649449
39.4160017296672 6.27441580112561
39.4320017304271 5.94100761922783
39.4480017311871 4.86633672279907
39.4640017319471 3.80016818311268
39.480001732707 3.3404881509472
39.496001733467 3.48520688438058
39.5120017342269 3.80151695361808
39.5280017349869 3.7920006018826
39.5440017357469 3.19959077276349
39.5600017365068 2.50049716500391
39.5760017372668 1.81131784756975
39.5920017380267 1.32295624651928
39.6080017387867 1.08618488723055
39.6240017395466 1.03370514602457
39.6400017403066 1.04735819916047
39.6560017410666 0.876829828388407
39.6720017418265 0.765571084063243
39.6880017425865 0.695162530318958
39.7040017433464 0.740891943615446
39.7200017441064 0.64962758535378
39.7360017448664 0.579134345675429
39.7520017456263 0.825466004962502
39.7680017463863 0.911188039507515
39.7840017471462 0.782725532380184
39.8000017479062 0.51766951222005
39.8160017486662 0.540158298623898
39.8320017494261 0.757144680769045
39.8480017501861 0.640117330042539
39.864001750946 0.746809282345884
39.880001751706 0.867783249063711
39.896001752466 0.707903166449285
39.9120017532259 0.709616138510631
39.9280017539859 0.790305021413447
39.9440017547458 0.850805626597102
39.9600017555058 0.929745980473668
39.9760017562658 0.86729356886501
39.9920017570257 0.709237126029059
