'Id: "" Comment: "" Operator: "Lab Manager" Anode: "Cu" Scantype: "Locked Coupled" TimePerStep: "157.8621" 
3 2.1388202501462
3.01600000075996 1.73295230916781
3.03200000151992 1.64968008448091
3.04800000227988 1.7358860170775
3.06400000303984 1.49694665360525
3.0800000037998 0.625099871003917
3.09600000455976 0.886735723915534
3.11200000531971 0.860598296449671
3.12800000607967 0.833585141981265
3.14400000683963 0.84355548218168
3.16000000759959 0.301300919470679
3.17600000835955 0.634141933190849
3.19200000911951 0.843864186223959
3.20800000987947 1.09212996900775
3.22400001063943 0.823836642539609
3.24000001139939 0.560083424677176
3.25600001215935 0.539965216574382
3.27200001291931 0.29193181674996
3.28800001367927 0.683343076083014
3.30400001443923 0.880478809461104
3.32000001519918 0.944105498367316
3.33600001595914 0.635408954273194
3.3520000167191 0.55600723219044
3.36800001747906 0.813275228654417
3.38400001823902 0.674206987323315
3.40000001899898 0.283042982526402
3.41600001975894 0.611127866763445
3.4320000205189 0.470958158838085
3.44800002127886 0.459537113814234
3.46400002203882 0.922265351595643
3.48000002279878 0.810588368302733
3.49600002355874 0.816262419573755
3.5120000243187 1.22941815409534
3.52800002507865 0.571220864819933
3.54400002583861 0.0361638715736685
3.56000002659857 0.222269010089741
3.57600002735853 0.698588650953985
3.59200002811849 1.09701080232688
3.60800002887845 0.909636125628092
3.62400002963841 0.499108138576803
3.64000003039837 0.381278502505809
3.65600003115833 0.781133901561708
3.67200003191829 0.680875265451091
3.68800003267825 0.75228559796256
3.70400003343821 0.768313903624966
3.72000003419816 0.209808450965655
3.73600003495812 0.436874311054266
3.75200003571808 1.1365654239188
3.76800003647804 0.751130714339665
3.784000037238 0.353152006464084
3.80000003799796 0.738592278377562
3.81600003875792 0.127384853730769
3.83200003951788 0.363015149514789
3.84800004027784 1.06992906373805
3.8640000410378 0.796635143938909
3.88000004179776 0.779168709081132
3.89600004255772 0.990246415281609
3.91200004331768 0.698967085493672
3.92800004407763 0.600226529368543
3.94400004483759 0.573686479532173
3.96000004559755 0.704940410105829
3.97600004635751 1.0781968625265
3.99200004711747 0.339643359174952
4.00800004787743 0.237326493046647
4.02400004863739 0.621844002277248
4.04000004939735 0.76091248160761
4.05600005015731 0.581746175551237
4.07200005091727 0.301888700566741
4.08800005167723 0.858241631843883
4.10400005243719 0.907437014663776
4.12000005319715 1.06588880315284
4.1360000539571 0.874147898431998
4.15200005471706 0.455666787967909
4.16800005547702 0.523966758312651
4.18400005623698 0.636188591829827
4.20000005699694 0.300707389662483
4.2160000577569 0.674985843437819
4.23200005851686 0.963622062963667
4.24800005927682 0.368854332363037
4.26400006003678 0.47450707084244
4.28000006079674 1.15276820992396
4.2960000615567 0.351119459942764
4.31200006231666 0.472841718082231
4.32800006307662 0.984008069355712
4.34400006383657 0.677239656261785
4.36000006459653 0.585506810896179
4.37600006535649 1.0630390952695
4.39200006611645 0.991281419386473
4.40800006687641 0.698330906375679
4.42400006763637 0.742642592612357
4.44000006839633 0.271941844830232
4.45600006915629 0.556555610950648
4.47200006991625 0.549109755263354
4.48800007067621 0.430540397377575
4.50400007143617 0.796406175433797
4.52000007219613 0.822130643218747
4.53600007295609 0.637946601308668
4.55200007371604 0.692036389339007
4.568000074476 0.97603000723719
4.58400007523596 1.13922086951593
4.60000007599592 0.680304211175612
4.61600007675588 0.93150118244708
4.63200007751584 1.32926271792756
4.6480000782758 0.654769645640746
4.66400007903576 0.507604263927083
4.68000007979572 0.642237116307628
4.69600008055568 0.951964131054622
4.71200008131564 0.34603984874744
4.7280000820756 0.301134545850212
4.74400008283556 0.629377715886646
4.76000008359551 1.0891020104976
4.77600008435547 1.1726534513265
4.79200008511543 0.845809131088545
4.80800008587539 0.946349790470146
4.82400008663535 0.956251560820489
4.84000008739531 0.920739357519276
4.85600008815527 0.541664524150116
4.87200008891523 0.767043469654064
4.88800008967519 0.223927329448331
4.90400009043515 0.0421278235825628
4.92000009119511 0.97193985308761
4.93600009195507 0.961223101694609
4.95200009271502 1.10174372560952
4.96800009347498 0.811869828914107
4.98400009423494 0.306849551689199
5.0000000949949 0.68403460447926
5.01600009575486 0.712667502357769
5.03200009651482 0.978341853424437
5.04800009727478 1.17497403597111
5.06400009803474 0.6018539350941
5.0800000987947 0.363291677481937
5.09600009955466 0.56371308476505
5.11200010031462 0.352300864969303
5.12800010107458 0.715547903052366
5.14400010183454 0.810197439001852
5.16000010259449 0.224161034758128
5.17600010335445 0.423423842441997
5.19200010411441 0.708118076993779
5.20800010487437 0.818904117111229
5.22400010563433 0.54450690629359
5.24000010639429 0.642041082458503
5.25600010715425 0.715100582716838
5.27200010791421 0.437003623659068
5.28800010867417 0.660123938731976
5.30400010943413 0.839000380860748
5.32000011019409 0.296863695462147
5.33600011095405 0.856456080247648
5.35200011171401 0.984879634948319
5.36800011247396 0.883837651092589
5.38400011323392 1.0478901406954
5.40000011399388 0.678177198834037
5.41600011475384 0
5.4320001155138 0.653702126611028
5.44800011627376 1.32383127849368
5.46400011703372 0.926218366276791
5.48000011779368 0.90717298269989
5.49600011855364 1.0827090089452
5.5120001193136 0.930016557601967
5.52800012007356 0.770400318979558
5.54400012083352 0.89623068611467
5.56000012159348 1.45588885098755
5.57600012235343 1.5531213356272
5.59200012311339 1.14381841953571
5.60800012387335 0.899003757040644
5.62400012463331 0.97206784149663
5.64000012539327 1.20984175373545
5.65600012615323 1.25306840150061
5.67200012691319 1.1751686050388
5.68800012767315 0.740000083529718
5.70400012843311 0.583207774006908
5.72000012919307 1.18381558543718
5.73600012995303 1.29650635910002
5.75200013071299 1.16580559300883
5.76800013147295 1.23264534760052
5.7840001322329 1.29341489250732
5.80000013299286 1.04880850766818
5.81600013375282 1.37012737661197
5.83200013451278 1.56409480459573
5.84800013527274 1.2341480242458
5.8640001360327 1.00649549183108
5.88000013679266 1.35146158426749
5.89600013755262 1.53852192048851
5.91200013831258 1.99658150926118
5.92800013907254 1.90478655785638
5.9440001398325 1.37430207630909
5.96000014059246 1.8694625902316
5.97600014135242 1.87478351847023
5.99200014211237 1.49320366498997
6.00800014287233 1.32611829563806
6.02400014363229 1.47383993413535
6.04000014439225 1.56361791586927
6.05600014515221 2.03190627346915
6.07200014591217 1.89960912290161
6.08800014667213 2.24100569523975
6.10400014743209 2.33521826308437
6.12000014819205 2.33189860439346
6.13600014895201 2.88833619417678
6.15200014971197 2.80132570429461
6.16800015047192 2.42373039873887
6.18400015123188 2.19255309869479
6.20000015199184 2.59694152150506
6.2160001527518 2.70302820840242
6.23200015351176 2.44668347556389
6.24800015427172 2.25147044251788
6.26400015503168 2.26774741980092
6.28000015579164 2.26569928163484
6.2960001565516 2.25563440334094
6.31200015731156 1.8885341448374
6.32800015807152 1.92284300499871
6.34400015883148 2.17502613592985
6.36000015959144 1.87750004880329
6.37600016035139 2.06691216315971
6.39200016111135 2.30388061209084
6.40800016187131 2.28517139497599
6.42400016263127 2.03808980288182
6.44000016339123 2.20293050894018
6.45600016415119 2.00459199093542
6.47200016491115 2.14249259626959
6.48800016567111 2.1151207259935
6.50400016643107 1.99448391060486
6.52000016719103 1.84449724538006
6.53600016795099 2.28549839182471
6.55200016871095 2.542270211827
6.56800016947091 2.45873526664725
6.58400017023086 2.41789663618567
6.60000017099082 1.99843007299488
6.61600017175078 2.22623779577873
6.63200017251074 2.11904843897997
6.6480001732707 1.44626077123974
6.66400017403066 2.12106964275531
6.68000017479062 2.0168612210814
6.69600017555058 1.93953879463638
6.71200017631054 1.82600713121168
6.7280001770705 2.12335107176649
6.74400017783046 2.18258220760482
6.76000017859042 1.94889673993648
6.77600017935038 2.08186450214466
6.79200018011033 2.25431855504634
6.80800018087029 2.44109052728485
6.82400018163025 2.2984023914396
6.84000018239021 2.50253002089152
6.85600018315017 2.47688759847304
6.87200018391013 1.86498578764696
6.88800018467009 1.95398597685364
6.90400018543005 2.26698194808047
6.92000018619001 2.4365054710048
6.93600018694997 2.07218135517162
6.95200018770993 1.80130352303028
6.96800018846989 2.2710876325549
6.98400018922985 2.54127479722472
7.0000001899898 2.30491461892735
7.01600019074976 2.32042906143842
7.03200019150972 2.52778608395468
7.04800019226968 2.65579146926718
7.06400019302964 2.54730152095178
7.0800001937896 2.62705470851329
7.09600019454956 2.36994511169798
7.11200019530952 2.4633863434054
7.12800019606948 2.40862510397229
7.14400019682944 2.53585017767342
7.1600001975894 2.26857415255762
7.17600019834936 1.95801925512831
7.19200019910931 1.98547039077101
7.20800019986927 2.06300153395468
7.22400020062923 2.16483940826375
7.24000020138919 2.13574971890466
7.25600020214915 2.57425884901334
7.27200020290911 2.36833506138745
7.28800020366907 2.13531161590077
7.30400020442903 2.14501267860288
7.32000020518899 2.06560734584099
7.33600020594895 2.10059808687197
7.35200020670891 1.97633256109727
7.36800020746887 2.10264901643144
7.38400020822883 2.34190554874738
7.40000020898878 2.0688518335427
7.41600020974874 1.76926488608424
7.4320002105087 1.93747278462421
7.44800021126866 2.2701866024094
7.46400021202862 1.9829352084406
7.48000021278858 2.02049616039755
7.49600021354854 2.03530420841532
7.5120002143085 1.67189660632469
7.52800021506846 2.06041574206445
7.54400021582842 2.68689745982882
7.56000021658838 2.31891314738151
7.57600021734834 1.69694189115906
7.5920002181083 1.9169776389574
7.60800021886825 2.06294282325956
7.62400021962821 2.1578845779394
7.64000022038817 1.77056359512848
7.65600022114813 1.73912338700334
7.67200022190809 1.87913677016168
7.68800022266805 1.80198483826072
7.70400022342801 2.43707024220698
7.72000022418797 2.32493493662788
7.73600022494793 1.67682727389488
7.75200022570789 1.63551815392158
7.76800022646785 2.19936172375719
7.78400022722781 2.06311862379035
7.80000022798777 1.95567647661972
7.81600022874772 2.21713267379163
7.83200022950768 2.16822398195014
7.84800023026764 1.95274724727929
7.8640002310276 1.89526526971463
7.88000023178756 1.57544652494853
7.89600023254752 1.88752342333095
7.91200023330748 2.12752301311662
7.92800023406744 1.71712056656982
7.9440002348274 2.01534304059535
7.96000023558736 1.67592773410505
7.97600023634732 1.9830300042215
7.99200023710728 2.24485031616375
8.00800023786724 2.14242849862521
8.0240002386272 1.84346070987717
8.04000023938715 1.968444520904
8.05600024014711 2.305919303354
8.07200024090707 2.00748306647053
8.08800024166703 2.20343735079188
8.10400024242699 2.38072723511448
8.12000024318695 1.92915312420486
8.13600024394691 1.81439663567882
8.15200024470687 1.89395798106771
8.16800024546683 2.32384047486697
8.18400024622679 2.19012260000862
8.20000024698675 1.98772592235349
8.21600024774671 1.79975879688405
8.23200024850667 1.82122597904283
8.24800024926662 2.10873398555991
8.26400025002658 2.15614841862446
8.28000025078654 2.0650586088351
8.2960002515465 2.03413887532479
8.31200025230646 1.80053923776807
8.32800025306642 1.87891211353858
8.34400025382638 2.01172423488643
8.36000025458634 2.0375320101585
8.3760002553463 1.89503356107111
8.39200025610626 1.84391371215586
8.40800025686622 1.95516300541657
8.42400025762618 2.07215134428108
8.44000025838614 1.8194815509711
8.45600025914609 1.46848665791074
8.47200025990605 1.98195476720579
8.48800026066601 2.55161330741292
8.50400026142597 2.13461310465772
8.52000026218593 1.8687250642301
8.53600026294589 1.76988951381262
8.55200026370585 1.85277262406124
8.56800026446581 2.30001143259287
8.58400026522577 2.44433625803682
8.60000026598573 2.86734551590382
8.61600026674569 2.55069501516397
8.63200026750565 2.4252658760931
8.6480002682656 2.74041968409736
8.66400026902556 2.95463488279272
8.68000026978552 2.75599487830097
8.69600027054548 2.8450529817438
8.71200027130544 3.02142499585161
8.7280002720654 3.6145509111154
8.74400027282536 4.30397295531846
8.76000027358532 4.50360705600708
8.77600027434528 5.13564446797833
8.79200027510524 5.78126598450656
8.8080002758652 6.76214739251209
8.82400027662516 7.65339190154635
8.84000027738512 7.91332125535444
8.85600027814507 6.36757461122058
8.87200027890503 4.30450146832108
8.88800027966499 3.71558349445653
8.90400028042495 2.84098195308593
8.92000028118491 2.06278426067422
8.93600028194487 1.94596041818707
8.95200028270483 1.83267457759549
8.96800028346479 1.80680289579812
8.98400028422475 1.59315743037251
9.00000028498471 1.44075067427253
9.01600028574467 1.27906009681034
9.03200028650463 1.20866687319827
9.04800028726459 1.3485309502558
9.06400028802454 1.11896454406296
9.0800002887845 1.23332599547096
9.09600028954446 1.12105997129796
9.11200029030442 1.59821659363428
9.12800029106438 1.80392353539522
9.14400029182434 1.91904133897561
9.1600002925843 1.40235001631404
9.17600029334426 1.10881546571019
9.19200029410422 1.40495097450132
9.20800029486418 1.29364133542455
9.22400029562414 0.753304443959273
9.24000029638409 0.827866557691515
9.25600029714405 0.676668638282889
9.27200029790401 0.758803150067882
9.28800029866397 0.998608148447845
9.30400029942393 1.11322970908054
9.32000030018389 0.816470827994362
9.33600030094385 0.874326018166764
9.35200030170381 0.985499594361968
9.36800030246377 1.46613000786381
9.38400030322373 1.16178305711865
9.40000030398369 1.1935144551008
9.41600030474365 0.748115703336529
9.43200030550361 0.553195300780262
9.44800030626356 1.02643870379943
9.46400030702352 0.696400614732438
9.48000030778348 0.992934578328358
9.49600030854344 1.21619612783415
9.5120003093034 0.919310966909689
9.52800031006336 1.2351315541888
9.54400031082332 0.861085891003556
9.56000031158328 0.781984620168444
9.57600031234324 0.916814694540795
9.5920003131032 0.925699625727288
9.60800031386316 0.628755704655232
9.62400031462312 1.14525691179071
9.64000031538307 1.0398579300479
9.65600031614303 0.506846806867133
9.67200031690299 0.430390202873253
9.68800031766295 0.728151035060112
9.70400031842291 1.21352771448723
9.72000031918287 0.965225754006333
9.73600031994283 0.703163685837005
9.75200032070279 0.905885238871342
9.76800032146275 0.96614587069581
9.78400032222271 0.527815214014064
9.80000032298267 0.80653764080721
9.81600032374263 0.790018386452386
9.83200032450259 0.272323070951103
9.84800032526254 0.573611097185836
9.8640003260225 0.397050664423038
9.88000032678246 0.571743672387706
9.89600032754242 0.944604924821927
9.91200032830238 0.562069185603749
9.92800032906234 0.688240711963736
9.9440003298223 0.699795045122825
9.96000033058226 0.561533715103613
9.97600033134222 0.653958452315651
9.99200033210218 0.821359808576229
10.0080003328621 0.755838837068914
10.0240003336221 0.5967454914597
10.0400003343821 0.462502189352522
10.056000335142 0.629873912256523
10.072000335902 0.744486592694948
10.0880003366619 0.672387135436486
10.1040003374219 0.827790349609803
10.1200003381819 0.546160811817179
10.1360003389418 0.30200603670928
10.1520003397018 0.601589924173442
10.1680003404617 0.644277145804486
10.1840003412217 0.461213230529163
10.2000003419816 0.542923489020692
10.2160003427416 0.646124751146782
10.2320003435016 0.937469376920387
10.2480003442615 1.11063482704432
10.2640003450215 0.689470223715247
10.2800003457814 0.922612667576614
10.2960003465414 0.759062699044806
10.3120003473014 0.494457232659382
10.3280003480613 0.499383183309217
10.3440003488213 0.515965620661948
10.3600003495812 0.923924902008553
10.3760003503412 0.690116639095979
10.3920003511012 0.758086978491093
10.4080003518611 0.816479031250323
10.4240003526211 0.79322682637633
10.440000353381 1.04990798812762
10.456000354141 0.755935835089376
10.472000354901 1.01116807783001
10.4880003556609 1.3595472802894
10.5040003564209 1.05256769579856
10.5200003571808 0.678461951774928
10.5360003579408 0.865103506388124
10.5520003587008 0.752580258279554
10.5680003594607 0.627085084933208
10.5840003602207 0.875438481349258
10.6000003609806 0.956253759976271
10.6160003617406 0.574658691932358
10.6320003625005 0.573812957889082
10.6480003632605 0.611704674930232
10.6640003640205 0.230867917174075
10.6800003647804 0.511897121744529
10.6960003655404 0.677013062156425
10.7120003663003 0.896684713482307
10.7280003670603 1.10290696295151
10.7440003678203 0.819184290193672
10.7600003685802 0.62234584971978
10.7760003693402 0.652814767478477
10.7920003701001 0.934617440252783
10.8080003708601 0.875365239691984
10.8240003716201 0.913072704546265
10.84000037238 0.800431251937729
10.85600037314 0.486162617635905
10.8720003738999 0.776199399492743
10.8880003746599 1.07931109377167
10.9040003754199 0.641729174899579
10.9200003761798 0.645118600579233
10.9360003769398 0.536491784971103
10.9520003776997 0.994077189931296
10.9680003784597 0.984318471904468
10.9840003792196 0.668042494144359
11.0000003799796 0.928245199011066
11.0160003807396 1.06446488233068
11.0320003814995 1.15147206797126
11.0480003822595 1.2371811224958
11.0640003830194 0.957209409199217
11.0800003837794 0.57516677662206
11.0960003845394 0.468573802861071
11.1120003852993 1.00532864675781
11.1280003860593 0.698225274076584
11.1440003868192 0.730116295797984
11.1600003875792 0.917814115453613
11.1760003883392 0.698041031562379
11.1920003890991 1.22406617128262
11.2080003898591 1.04366132319897
11.224000390619 0.807990845529384
11.240000391379 0.953349118624486
11.256000392139 1.02877040058008
11.2720003928989 1.3403335031135
11.2880003936589 1.47864410975977
11.3040003944188 1.1155646759731
11.3200003951788 1.01161205243296
11.3360003959388 1.22424577310875
11.3520003966987 1.27675191620163
11.3680003974587 0.686101807152475
11.3840003982186 0.644450376966361
11.4000003989786 1.21190791273442
11.4160003997385 1.20293352140052
11.4320004004985 1.083974885473
11.4480004012585 1.18959638894317
11.4640004020184 1.67971745337132
11.4800004027784 2.01864239822072
11.4960004035383 2.35649524379988
11.5120004042983 2.33630770263296
11.5280004050583 2.89659038901009
11.5440004058182 3.61574142490907
11.5600004065782 4.76269260152399
11.5760004073381 6.61992907187944
11.5920004080981 8.36248702018187
11.6080004088581 8.64060864289348
11.624000409618 7.27376342119963
11.640000410378 5.33189999936266
11.6560004111379 3.42660807408286
11.6720004118979 2.52093350224205
11.6880004126579 2.49764716765815
11.7040004134178 2.32859373630883
11.7200004141778 1.9832271147946
11.7360004149377 1.7659286781361
11.7520004156977 1.65298569080439
11.7680004164577 1.67133653143766
11.7840004172176 1.74222759530038
11.8000004179776 2.41026511015696
11.8160004187375 2.37081727333473
11.8320004194975 2.18257921532479
11.8480004202574 2.17767145833232
11.8640004210174 2.25735717046658
11.8800004217774 1.89603534578574
11.8960004225373 1.73272189915367
11.9120004232973 2.30701726097204
11.9280004240572 2.49952562713071
11.9440004248172 2.78055602171464
11.9600004255772 2.76982680023138
11.9760004263371 2.67399996172087
11.9920004270971 3.06569300776663
12.008000427857 3.05549801960164
12.024000428617 3.27055017258739
12.040000429377 3.59001230403903
12.0560004301369 3.69546568186332
12.0720004308969 3.61967738698308
12.0880004316568 3.66004217032758
12.1040004324168 3.97203536360563
12.1200004331768 4.28188510862244
12.1360004339367 4.80944681319375
12.1520004346967 5.26520362210977
12.1680004354566 5.66479700395652
12.1840004362166 6.66795251532394
12.2000004369766 7.36257979391358
12.2160004377365 8.13029385457373
12.2320004384965 9.30042683040856
12.2480004392564 10.8519040012652
12.2640004400164 12.708393473189
12.2800004407763 14.6784048534324
12.2960004415363 17.5108894651997
12.3120004422963 20.1674668721113
12.3280004430562 22.2383706092361
12.3440004438162 21.6730801265108
12.3600004445761 17.9632649200501
12.3760004453361 13.8987316179167
12.3920004460961 10.84338110753
12.408000446856 8.96323301125391
12.424000447616 7.91799788894708
12.4400004483759 6.87797407147208
12.4560004491359 6.16355863678574
12.4720004498959 5.5694666753488
12.4880004506558 5.13065697894594
12.5040004514158 4.72629928811507
12.5200004521757 4.26828679473468
12.5360004529357 3.35511614312645
12.5520004536957 3.02695124776082
12.5680004544556 2.69775348654391
12.5840004552156 2.19707686827073
12.6000004559755 2.46760493074895
12.6160004567355 2.31780280975124
12.6320004574954 1.9190830690064
12.6480004582554 1.96347507061522
12.6640004590154 1.75988706041485
12.6800004597753 1.57725335834816
12.6960004605353 1.48995945532231
12.7120004612952 1.17631744790013
12.7280004620552 1.30740620986511
12.7440004628152 1.49980344528327
12.7600004635751 1.07305503027328
12.7760004643351 1.04907876995501
12.792000465095 1.33670992560045
12.808000465855 1.39886538116765
12.824000466615 1.34632738735155
12.8400004673749 1.07503697166447
12.8560004681349 0.743789738754501
12.8720004688948 0.827724615786057
12.8880004696548 0.985489837705996
12.9040004704148 0.983665994686692
12.9200004711747 0.753265559508735
12.9360004719347 0.781666302160525
12.9520004726946 0.654077326452693
12.9680004734546 0.598056445341152
12.9840004742146 0.839602844584325
13.0000004749745 0.719721842284182
13.0160004757345 0.98210209247434
13.0320004764944 1.07620290328135
13.0480004772544 0.385264035724193
13.0640004780143 0.636709382548757
13.0800004787743 0.879235104941378
13.0960004795343 0.915848197292284
13.1120004802942 0.91739381714576
13.1280004810542 0.606550155882113
13.1440004818141 0.91696563680177
13.1600004825741 0.721894405111454
13.1760004833341 0.832027559664196
13.192000484094 0.879636694530324
13.208000484854 0.739061858131922
13.2240004856139 0.831013948808749
13.2400004863739 0.848119877027891
13.2560004871339 0.691527262514978
13.2720004878938 0.531367114421272
13.2880004886538 0.682557302558713
13.3040004894137 0.753577994349634
13.3200004901737 0.655827025527007
13.3360004909337 0.782899853497486
13.3520004916936 0.836082493958152
13.3680004924536 0.777232178242826
13.3840004932135 0.628361911043404
13.4000004939735 0.557627904455739
13.4160004947335 0.476647391879156
13.4320004954934 0.473776614336955
13.4480004962534 0.547179716531788
13.4640004970133 0.507191694092665
13.4800004977733 0.615669624327537
13.4960004985332 0.688292994860437
13.5120004992932 0.321559642528493
13.5280005000532 0.614857312272841
13.5440005008131 0.917717493234527
13.5600005015731 0.920562382041117
13.576000502333 0.233569095750638
13.592000503093 0.380171891930857
13.608000503853 0.850677436126616
13.6240005046129 0.799376720753861
13.6400005053729 0.65121404479282
13.6560005061328 0.582882827493591
13.6720005068928 0.869899052983056
13.6880005076528 0.981454632316886
13.7040005084127 0.735272089623005
13.7200005091727 0.752463517160317
13.7360005099326 0.763453196795657
13.7520005106926 0.645623412414845
13.7680005114526 0.416876724929725
13.7840005122125 0.437429064453832
13.8000005129725 0.666887213715824
13.8160005137324 0.658885041320776
13.8320005144924 0.760977749606111
13.8480005152523 1.06380452213687
13.8640005160123 0.96187810321479
13.8800005167723 0.619040982816926
13.8960005175322 0.676368583540339
13.9120005182922 0.61995255487047
13.9280005190521 0.527210765047101
13.9440005198121 0.465335634496292
13.9600005205721 0.572230949245687
13.976000521332 0.440491731732226
13.992000522092 0.905639054779294
14.0080005228519 1.11759711596655
14.0240005236119 0.858703503415109
14.0400005243719 0.62666551203238
14.0560005251318 0.727325370716294
14.0720005258918 0.941384538497596
14.0880005266517 0.904004916525062
14.1040005274117 0.880349553529662
14.1200005281717 0.706950941970855
14.1360005289316 0.525078562834194
14.1520005296916 0.649960599322866
14.1680005304515 0.718306467315252
14.1840005312115 0.614414686355119
14.2000005319715 0.596199337536982
14.2160005327314 0.630600688456743
14.2320005334914 0.653375013319347
14.2480005342513 0.717279961543597
14.2640005350113 0.311505687510214
14.2800005357712 0.488372857212678
14.2960005365312 0.526854740083346
14.3120005372912 0.476547239570577
14.3280005380511 0.723365018381092
14.3440005388111 0.687254894645008
14.360000539571 0.88016677556274
14.376000540331 0.632882097325909
14.392000541091 0.530875104258084
14.4080005418509 0.829865036392015
14.4240005426109 0.553027062468735
14.4400005433708 0.584916711699772
14.4560005441308 0.789664905397454
14.4720005448908 0.622449347442656
14.4880005456507 0.767670761673999
14.5040005464107 0.997904312898885
14.5200005471706 0.729042241955242
14.5360005479306 0.451605279017121
14.5520005486906 0.526592777416746
14.5680005494505 0.59206783645863
14.5840005502105 0.595753274644526
14.6000005509704 0.564859464463109
14.6160005517304 0.726330118268714
14.6320005524904 0.708328431761533
14.6480005532503 0.669729287075969
14.6640005540103 0.988741297252938
14.6800005547702 0.856432499759465
14.6960005555302 0.461035467956936
14.7120005562901 0.518055578112409
14.7280005570501 1.02846528857694
14.7440005578101 0.6254494246533
14.76000055857 0.477012673230659
14.77600055933 0.654550266301838
14.7920005600899 0.630644921469209
14.8080005608499 0.814004043827184
14.8240005616099 0.664253348892046
14.8400005623698 0.650525776221555
14.8560005631298 0.791130816681665
14.8720005638897 0.811038781089758
14.8880005646497 0.809536842099476
14.9040005654097 0.851540823841467
14.9200005661696 0.894693957094583
14.9360005669296 0.886389315491741
14.9520005676895 0.594996429530029
14.9680005684495 0.555201559139746
14.9840005692095 0.783761647451843
15.0000005699694 0.746277539745641
15.0160005707294 0.784700152953376
15.0320005714893 0.939643214367101
15.0480005722493 0.588012716885938
15.0640005730093 0.565023563639708
15.0800005737692 0.399202929111781
15.0960005745292 0.368920436733889
15.1120005752891 0.56563093535353
15.1280005760491 0.788640331511913
15.144000576809 0.857327545318308
15.160000577569 0.940174950366532
15.176000578329 0.700854239688653
15.1920005790889 0.719086861761096
15.2080005798489 1.00002160861717
15.2240005806088 1.04968342875306
15.2400005813688 1.15310083006276
15.2560005821288 0.972713949388694
15.2720005828887 0.782060437517399
15.2880005836487 0.855689871255878
15.3040005844086 0.835656898804201
15.3200005851686 0.637344629241086
15.3360005859286 0.532434097056795
15.3520005866885 0.847709647279621
15.3680005874485 1.08473908416742
15.3840005882084 0.847761918359456
15.4000005889684 1.00393921334555
15.4160005897284 0.919841030451849
15.4320005904883 0.726081355453222
15.4480005912483 0.670543037041224
15.4640005920082 0.889828624943994
15.4800005927682 0.842146805049607
15.4960005935281 0.668645127057041
15.5120005942881 0.767257590014026
15.5280005950481 0.558597979480116
15.544000595808 0.704613601989629
15.560000596568 0.693307133770658
15.5760005973279 0.556489130322252
15.5920005980879 0.897679662360241
15.6080005988479 0.860927131495528
15.6240005996078 0.700786402910809
15.6400006003678 0.962320039540982
15.6560006011277 1.01267591190028
15.6720006018877 0.889059269831017
15.6880006026477 0.747261681581296
15.7040006034076 0.499752529775678
15.7200006041676 0.465955062558185
15.7360006049275 0.694584672280536
15.7520006056875 0.982140342016415
15.7680006064475 0.866608949231364
15.7840006072074 0.870888291873295
15.8000006079674 0.600995434838546
15.8160006087273 0.826646103668383
15.8320006094873 0.981645680559438
15.8480006102473 0.430180947021459
15.8640006110072 0.328626799747848
15.8800006117672 0.801597320017986
15.8960006125271 0.591241568286431
15.9120006132871 0.621750525512637
15.928000614047 0.819802677275349
15.944000614807 0.56884353819751
15.960000615567 0.655303747117964
15.9760006163269 0.841501830848586
15.9920006170869 0.607273710417449
16.0080006178468 0.747690284731067
16.0240006186068 1.0894617276834
16.0400006193668 0.980122992530082
16.0560006201267 0.585132467048403
16.0720006208867 0.634362424032812
16.0880006216466 0.815455878439658
16.1040006224066 0.707585476170243
16.1200006231666 0.525671922766209
16.1360006239265 0.426741294192853
16.1520006246865 0.517717586990827
16.1680006254464 0.536320521791228
16.1840006262064 0.549656243346431
16.2000006269664 0.408240500137085
16.2160006277263 0.690816817434809
16.2320006284863 1.05677712802745
16.2480006292462 0.593500490991388
16.2640006300062 0.833115635289015
16.2800006307661 0.869170758640615
16.2960006315261 0.700736393155783
16.3120006322861 0.759937118072024
16.328000633046 1.09748255836701
16.344000633806 0.983591076468231
16.3600006345659 0.819692432412909
16.3760006353259 0.653032390675972
16.3920006360859 0.604602800405819
16.4080006368458 0.766459992762123
16.4240006376058 0.871080444025362
16.4400006383657 0.780459193396829
16.4560006391257 0.830393352065588
16.4720006398857 0.866488783425563
16.4880006406456 0.880664602218721
16.5040006414056 0.91072806864398
16.5200006421655 0.940313258265003
16.5360006429255 0.962305606992664
16.5520006436855 0.655320666264415
16.5680006444454 0.602076841520376
16.5840006452054 0.53038406367536
16.6000006459653 0.58072908509713
16.6160006467253 0.774343215460207
16.6320006474853 1.04938715400524
16.6480006482452 0.968748790452196
16.6640006490052 0.988819600355933
16.6800006497651 0.787124980150947
16.6960006505251 0.83797878185506
16.712000651285 0.890511846264983
16.728000652045 0.550016086027159
16.744000652805 0.618654217920014
16.7600006535649 1.00118767502703
16.7760006543249 1.05553924576764
16.7920006550848 0.833772312259349
16.8080006558448 0.853828987814591
16.8240006566048 0.891819993788942
16.8400006573647 0.679846377694275
16.8560006581247 0.664816957196154
16.8720006588846 0.687360744938817
16.8880006596446 0.956233020862997
16.9040006604046 0.873499944265254
16.9200006611645 0.746854296218931
16.9360006619245 0.910601887945266
16.9520006626844 0.83368631675146
16.9680006634444 0.653995001670567
16.9840006642044 0.661560061522189
17.0000006649643 0.70446879195566
17.0160006657243 0.83221909216592
17.0320006664842 0.837840403764109
17.0480006672442 0.833503688287769
17.0640006680042 0.792740079542125
17.0800006687641 0.772844754817565
17.0960006695241 0.582478315922152
17.112000670284 0.340406933754
17.128000671044 0.490083950245574
17.1440006718039 0.730239009504661
17.1600006725639 0.684361403642966
17.1760006733239 0.761324720861168
17.1920006740838 0.747190544792937
17.2080006748438 0.865098377520307
17.2240006756037 0.749395940510806
17.2400006763637 0.535061742687776
17.2560006771237 0.927086968286116
17.2720006778836 0.975854539633213
17.2880006786436 0.692981712818923
17.3040006794035 0.88540550412517
17.3200006801635 0.809109002916568
17.3360006809235 0.890082367922259
17.3520006816834 0.763658242105334
17.3680006824434 0.786283858653275
17.3840006832033 0.617746519463076
17.4000006839633 0.727081176896835
17.4160006847233 0.99735677957838
17.4320006854832 1.07052645427406
17.4480006862432 1.11537837350936
17.4640006870031 1.19677642379828
17.4800006877631 1.13207138374773
17.4960006885231 1.22265542970281
17.512000689283 1.37445067170593
17.528000690043 1.08407394784706
17.5440006908029 1.0612299789885
17.5600006915629 1.43617336628129
17.5760006923228 1.20218713757229
17.5920006930828 0.69522250402534
17.6080006938428 1.10728862428471
17.6240006946027 1.36205853362899
17.6400006953627 1.31246647166139
17.6560006961226 1.56381822678854
17.6720006968826 1.52897057793139
17.6880006976426 1.86746864139141
17.7040006984025 1.89187648871386
17.7200006991625 1.79977859049777
17.7360006999224 2.10132163446377
17.7520007006824 1.97619192243932
17.7680007014424 1.86013567791985
17.7840007022023 1.87090460705491
17.8000007029623 1.76920608364649
17.8160007037222 1.5775759808575
17.8320007044822 1.26574891422368
17.8480007052422 1.00651888907424
17.8640007060021 1.19183743973636
17.8800007067621 1.07410319543764
17.896000707522 0.693004446983745
17.912000708282 1.06538007810906
17.9280007090419 1.10818167658225
17.9440007098019 0.870780647319179
17.9600007105619 0.566731672167615
17.9760007113218 0.811621916686248
17.9920007120818 1.15078925268923
18.0080007128417 0.937732124914596
18.0240007136017 0.910604442806044
18.0400007143617 0.589255143250206
18.0560007151216 0.66531840480589
18.0720007158816 0.62267820697484
18.0880007166415 0.807784722463124
18.1040007174015 0.630847096583959
18.1200007181615 0.598930401198221
18.1360007189214 0.698410567746223
18.1520007196814 0.779577945196801
18.1680007204413 0.764127108454067
18.1840007212013 0.849121977064348
18.2000007219613 0.611874362633491
18.2160007227212 0.619401188914875
18.2320007234812 0.82245147099025
18.2480007242411 0.860709786716444
18.2640007250011 0.736121765366491
18.2800007257611 0.752969517344109
18.296000726521 0.839589775511624
18.312000727281 0.621072471892813
18.3280007280409 0.643667478663894
18.3440007288009 1.05719796876544
18.3600007295608 0.807245074875534
18.3760007303208 0.76070931630803
18.3920007310808 0.955460602460731
18.4080007318407 0.987392079156966
18.4240007326007 0.876809321004061
18.4400007333606 0.896598228913247
18.4560007341206 0.869094880749996
18.4720007348806 0.667607712441075
18.4880007356405 0.743804398067942
18.5040007364005 0.96045198859136
18.5200007371604 0.728139642348602
18.5360007379204 0.74961963679162
18.5520007386804 0.934015010587691
18.5680007394403 0.992552268674896
18.5840007402003 1.01368016413006
18.6000007409602 0.848767151068452
18.6160007417202 0.811403631551781
18.6320007424802 0.64859234984687
18.6480007432401 0.660038406816803
18.6640007440001 0.700879001474026
18.68000074476 0.841151862517751
18.69600074552 0.850259854704521
18.71200074628 0.728280668081984
18.7280007470399 1.02695992307672
18.7440007477999 1.18414720627358
18.7600007485598 1.21100865790919
18.7760007493198 1.16042272264424
18.7920007500797 0.990853726991884
18.8080007508397 0.734599387636686
18.8240007515997 0.859122956597176
18.8400007523596 0.855303906389809
18.8560007531196 0.491104021343424
18.8720007538795 0.449081555609781
18.8880007546395 0.802491771630743
18.9040007553995 0.873497585101781
18.9200007561594 0.78838885906416
18.9360007569194 0.538177707485564
18.9520007576793 0.749965334305101
18.9680007584393 0.441136930421928
18.9840007591993 0.515496628528055
19.0000007599592 0.780658297970558
19.0160007607192 0.526572713287076
19.0320007614791 0.447724677318956
19.0480007622391 0.34160685861482
19.0640007629991 0.674381660860337
19.080000763759 0.652220654518562
19.096000764519 0.667110352006326
19.1120007652789 0.851182690867572
19.1280007660389 1.08364964095059
19.1440007667989 0.694679271462202
19.1600007675588 0.764209958692065
19.1760007683188 0.85624101109121
19.1920007690787 0.549232740687007
19.2080007698387 0.613886833818254
19.2240007705986 0.440757791549609
19.2400007713586 0.65498154097484
19.2560007721186 0.621318402343785
19.2720007728785 0.604675455005606
19.2880007736385 0.899418583568748
19.3040007743984 0.968250480508236
19.3200007751584 0.838252423982379
19.3360007759184 0.729806333482594
19.3520007766783 0.895882899050839
19.3680007774383 1.0591392675136
19.3840007781982 0.939835484929358
19.4000007789582 1.05479711651412
19.4160007797182 1.00265603714878
19.4320007804781 1.00769111441947
19.4480007812381 1.29977021439339
19.464000781998 1.50872962915056
19.480000782758 1.21410482874964
19.496000783518 1.3251940107472
19.5120007842779 1.24001791394613
19.5280007850379 1.18379023975204
19.5440007857978 1.65480554866703
19.5600007865578 1.91439535266869
19.5760007873177 1.94124562464724
19.5920007880777 2.13050255829859
19.6080007888377 2.34896256928115
19.6240007895976 2.81104128792402
19.6400007903576 2.93270839006414
19.6560007911175 3.16254814636409
19.6720007918775 3.38916104071618
19.6880007926375 3.67016730727664
19.7040007933974 4.26254395949077
19.7200007941574 4.38582406912331
19.7360007949173 4.8405093925383
19.7520007956773 5.61495276527239
19.7680007964373 5.77320833181511
19.7840007971972 6.0509682631153
19.8000007979572 6.08506926825086
19.8160007987171 6.56960608367825
19.8320007994771 6.82657880597592
19.8480008002371 6.56737560175188
19.864000800997 6.29802717198798
19.880000801757 6.17064567438091
19.8960008025169 6.30985140859443
19.9120008032769 6.09698605963186
19.9280008040369 5.92821362594163
19.9440008047968 5.55477180326712
19.9600008055568 5.41298237439284
19.9760008063167 5.47208969851448
19.9920008070767 5.35517938004596
20.0080008078366 4.89175554018776
20.0240008085966 4.55225551091164
20.0400008093566 4.71152427061214
20.0560008101165 4.75350293928875
20.0720008108765 4.81827739711007
20.0880008116364 4.60668293975364
20.1040008123964 4.09753153258693
20.1200008131564 4.32791944909764
20.1360008139163 4.17679559341387
20.1520008146763 4.26027429969957
20.1680008154362 4.04011408397024
20.1840008161962 4.27725470759479
20.2000008169562 4.28490834173463
20.2160008177161 3.75405895365898
20.2320008184761 3.77133378396154
20.248000819236 3.96299371331802
20.264000819996 4.29145380514117
20.280000820756 4.18295134079197
20.2960008215159 4.06365227421633
20.3120008222759 4.24120815102648
20.3280008230358 4.18649927078934
20.3440008237958 3.46506042313987
20.3600008245558 3.67870324522478
20.3760008253157 4.1349959611709
20.3920008260757 3.86535116826665
20.4080008268356 3.3046984442734
20.4240008275956 3.08831537565612
20.4400008283555 3.54256814768146
20.4560008291155 3.43000890916455
20.4720008298755 3.61983070329228
20.4880008306354 3.79972808693151
20.5040008313954 3.54551789957065
20.5200008321553 3.61362491534127
20.5360008329153 3.47967701201291
20.5520008336753 3.62662907413187
20.5680008344352 3.76493069625314
20.5840008351952 3.92206039842078
20.6000008359551 3.78217314378475
20.6160008367151 3.84104181210766
20.6320008374751 4.00130656839179
20.648000838235 4.22271698644036
20.664000838995 4.82761015332436
20.6800008397549 5.72167274064037
20.6960008405149 6.14414300581374
20.7120008412749 6.40622257336027
20.7280008420348 6.85756361035345
20.7440008427948 8.15149570064659
20.7600008435547 10.2676887642061
20.7760008443147 13.7428263022072
20.7920008450747 19.1963097953472
20.8080008458346 25.1662762527671
20.8240008465946 28.7230234601294
20.8400008473545 25.0033839261727
20.8560008481145 19.5536319471165
20.8720008488744 17.0686147508605
20.8880008496344 13.8818800108929
20.9040008503944 9.06687882827679
20.9200008511543 5.96270765993919
20.9360008519143 5.18365300261407
20.9520008526742 4.56632529767381
20.9680008534342 3.91464388123249
20.9840008541942 3.3347544706072
21.0000008549541 3.78045701264596
21.0160008557141 3.68441519230238
21.032000856474 3.13110942078989
21.048000857234 3.31216716313107
21.064000857994 3.04524561268171
21.0800008587539 2.85340140523365
21.0960008595139 2.70196057972474
21.1120008602738 2.74306909270576
21.1280008610338 2.67420226130108
21.1440008617938 2.52464331042595
21.1600008625537 3.03514020426105
21.1760008633137 3.26770346112416
21.1920008640736 2.72907921790686
21.2080008648336 2.65912353704189
21.2240008655935 2.63927746470073
21.2400008663535 2.74170638471564
21.2560008671135 2.83441407182804
21.2720008678734 3.03165904747731
21.2880008686334 2.78084549849634
21.3040008693933 2.18533103619786
21.3200008701533 2.33028254915045
21.3360008709133 2.3700804811946
21.3520008716732 2.71702366043296
21.3680008724332 2.53739356476382
21.3840008731931 2.45242799170498
21.4000008739531 2.5442393876021
21.4160008747131 2.54704838419303
21.432000875473 2.62359128064354
21.448000876233 2.63693956655499
21.4640008769929 2.69159149542468
21.4800008777529 2.76687561428907
21.4960008785129 2.8068261244914
21.5120008792728 2.61220770902801
21.5280008800328 2.31448879139046
21.5440008807927 2.36302908106619
21.5600008815527 2.48800750245447
21.5760008823127 2.2477000878431
21.5920008830726 2.44148336451139
21.6080008838326 2.06342690904714
21.6240008845925 1.81920398418247
21.6400008853525 2.09933643329619
21.6560008861124 2.1647726442075
21.6720008868724 2.16635228401521
21.6880008876324 1.83967321260984
21.7040008883923 2.00371547416006
21.7200008891523 2.14023691046588
21.7360008899122 1.91574252816192
21.7520008906722 1.80528072592297
21.7680008914322 2.06708375142596
21.7840008921921 2.02171411754888
21.8000008929521 1.81879498381392
21.816000893712 1.79211128338412
21.832000894472 1.93603351514857
21.848000895232 2.18836406129018
21.8640008959919 2.14251439475527
21.8800008967519 2.00928729897228
21.8960008975118 2.29350524526305
21.9120008982718 2.22680531434989
21.9280008990318 2.06833953537568
21.9440008997917 2.29565513459311
21.9600009005517 1.94876352262131
21.9760009013116 2.19943775056543
21.9920009020716 2.12027587376588
22.0080009028316 2.06433566475719
22.0240009035915 2.28052337337785
22.0400009043515 2.06644086300556
22.0560009051114 1.76396843642244
22.0720009058714 1.83061236685586
22.0880009066313 1.55041936986884
22.1040009073913 1.50062324939735
22.1200009081513 1.46652045023494
22.1360009089112 1.21576368752694
22.1520009096712 1.42266756595468
22.1680009104311 1.67787048810007
22.1840009111911 1.60812907762275
22.2000009119511 1.60649656763082
22.216000912711 1.63054365168828
22.232000913471 1.51566968360415
22.2480009142309 1.50941357985158
22.2640009149909 1.66292684101205
22.2800009157509 1.28970174560995
22.2960009165108 1.52061688798746
22.3120009172708 1.77494000700817
22.3280009180307 1.56648814861577
22.3440009187907 1.58772027465992
22.3600009195507 1.46845320730746
22.3760009203106 1.47717457920974
22.3920009210706 1.51560773555804
22.4080009218305 1.33114750094969
22.4240009225905 1.32855593903865
22.4400009233504 1.14738691443527
22.4560009241104 1.28210884199299
22.4720009248704 1.52956905012531
22.4880009256303 1.50868660579547
22.5040009263903 1.14270584088936
22.5200009271502 1.11685558417113
22.5360009279102 1.29331438122099
22.5520009286702 1.00583754783933
22.5680009294301 1.54563770566904
22.5840009301901 1.77626490605091
22.60000093095 1.52383516442786
22.61600093171 1.12207274534452
22.63200093247 1.04833192127647
22.6480009332299 1.19089623379388
22.6640009339899 1.38072795593758
22.6800009347498 1.23708075961737
22.6960009355098 1.36742147645628
22.7120009362698 1.0984636918235
22.7280009370297 1.3828916106789
22.7440009377897 1.59807937303098
22.7600009385496 1.09299550957112
22.7760009393096 1.09257097219397
22.7920009400696 1.22526782405078
22.8080009408295 1.32430140893491
22.8240009415895 1.21639164449567
22.8400009423494 1.41515573692293
22.8560009431094 1.42982643753934
22.8720009438693 1.5398045437574
22.8880009446293 1.57794143785614
22.9040009453893 1.4540805014274
22.9200009461492 1.1682985094937
22.9360009469092 1.15737868938383
22.9520009476691 0.914800495069396
22.9680009484291 1.08561554185649
22.9840009491891 1.25401970776062
23.000000949949 0.975160525512184
23.016000950709 1.14518614271798
23.0320009514689 1.6061339583369
23.0480009522289 1.29797441622751
23.0640009529889 0.971514835479319
23.0800009537488 1.18641653312007
23.0960009545088 1.4627300474533
23.1120009552687 1.13300899364069
23.1280009560287 0.976389277408334
23.1440009567887 1.36210899446125
23.1600009575486 1.39078830361647
23.1760009583086 1.1858530652124
23.1920009590685 1.01699582648157
23.2080009598285 0.954745221111441
23.2240009605885 1.13340328998375
23.2400009613484 1.17624601760853
23.2560009621084 0.985216275331301
23.2720009628683 1.17346786667542
23.2880009636283 1.34896321876172
23.3040009643882 1.35817171040679
23.3200009651482 1.87219008919909
23.3360009659082 1.87724209335
23.3520009666681 2.06339536579215
23.3680009674281 2.05816932248683
23.384000968188 1.54658141405091
23.400000968948 1.38953680581466
23.416000969708 1.55519565970049
23.4320009704679 1.3765644209991
23.4480009712279 0.857790589598164
23.4640009719878 1.09723524467232
23.4800009727478 1.19053397366836
23.4960009735078 1.32139404145345
23.5120009742677 1.2320773264074
23.5280009750277 1.04850217340052
23.5440009757876 1.21008463383615
23.5600009765476 1.38129803854789
23.5760009773076 1.4017970654652
23.5920009780675 1.11003765892014
23.6080009788275 1.32238494121847
23.6240009795874 1.10393950563877
23.6400009803474 0.798453250286274
23.6560009811074 1.14985307382325
23.6720009818673 1.09365036386088
23.6880009826273 0.960533434306907
23.7040009833872 1.2810379429112
23.7200009841472 1.18150742843083
23.7360009849071 1.26865947963064
23.7520009856671 1.26749545876172
23.7680009864271 1.34285959653146
23.784000987187 1.41262474327231
23.800000987947 1.48585010169258
23.8160009887069 1.49213769369976
23.8320009894669 1.72031530957295
23.8480009902269 1.57999404996703
23.8640009909868 1.46386578433923
23.8800009917468 1.53855267342958
23.8960009925067 1.39848932626168
23.9120009932667 1.01040368687154
23.9280009940267 1.16478768102487
23.9440009947866 1.60730373908551
23.9600009955466 1.46491990208756
23.9760009963065 1.46334453768696
23.9920009970665 1.50644464285114
24.0080009978265 1.35278902653852
24.0240009985864 1.1593353572895
24.0400009993464 1.26665174269481
24.0560010001063 1.29869145677173
24.0720010008663 1.05037890571684
24.0880010016262 1.38282857178163
24.1040010023862 1.47153009940528
24.1200010031462 1.24805537034739
24.1360010039061 1.35018143518418
24.1520010046661 1.27722465506142
24.168001005426 1.13116781419564
24.184001006186 1.42897059899754
24.200001006946 1.75769555335885
24.2160010077059 1.67269746805427
24.2320010084659 1.5612452590017
24.2480010092258 1.17099730401745
24.2640010099858 1.25005911912786
24.2800010107458 1.48739644133676
24.2960010115057 1.51794771836611
24.3120010122657 1.38134657574799
24.3280010130256 1.40829731609849
24.3440010137856 1.56796572487578
24.3600010145456 1.46213653779262
24.3760010153055 1.47106869254072
24.3920010160655 1.60449082111986
24.4080010168254 1.68975408418783
24.4240010175854 1.57620641152358
24.4400010183454 1.77417759686875
24.4560010191053 1.71647039996483
24.4720010198653 2.31874766588268
24.4880010206252 2.15036352653096
24.5040010213852 1.7658037019171
24.5200010221451 2.08718598431575
24.5360010229051 1.88841280395
24.5520010236651 1.86333251177717
24.568001024425 2.06439364824669
24.584001025185 2.14025202651221
24.6000010259449 2.47961750744721
24.6160010267049 2.46007588067175
24.6320010274649 2.46281740931372
24.6480010282248 2.69696892269775
24.6640010289848 3.08807544472385
24.6800010297447 3.35778079633528
24.6960010305047 3.61498157635045
24.7120010312647 4.16188334870467
24.7280010320246 4.50897905309178
24.7440010327846 5.10182286049413
24.7600010335445 5.93815364240487
24.7760010343045 7.01794251033674
24.7920010350645 8.56102848325759
24.8080010358244 10.4756656966971
24.8240010365844 11.6787748948763
24.8400010373443 11.5953009302319
24.8560010381043 11.2445981484656
24.8720010388643 10.7416223683809
24.8880010396242 9.63506308260253
24.9040010403842 8.87637264926417
24.9200010411441 7.95551595336996
24.9360010419041 6.78537956693533
24.952001042664 6.10427546194807
24.968001043424 5.62928488841919
24.984001044184 4.98408070886169
25.0000010449439 4.70497218347687
25.0160010457039 4.51172945136022
25.0320010464638 4.24569511023106
25.0480010472238 3.91749139487799
25.0640010479838 3.77446413412334
25.0800010487437 3.7219285882313
25.0960010495037 3.47078078584494
25.1120010502636 3.5813396998277
25.1280010510236 3.69510178520654
25.1440010517836 3.60455932716096
25.1600010525435 3.0235678213062
25.1760010533035 3.17383622439266
25.1920010540634 3.38767208675572
25.2080010548234 3.34364875168913
25.2240010555834 3.58803074108172
25.2400010563433 3.99737201801502
25.2560010571033 3.89100222247327
25.2720010578632 4.14610546370799
25.2880010586232 3.6750381373181
25.3040010593832 3.38605293182455
25.3200010601431 3.38242982998983
25.3360010609031 2.97763572908119
25.352001061663 2.84048633761958
25.368001062423 2.71024133681915
25.3840010631829 2.47302802849266
25.4000010639429 2.17191888203461
25.4160010647029 1.94828605730419
25.4320010654628 2.35356122202592
25.4480010662228 2.44159568406975
25.4640010669827 1.96384564583394
25.4800010677427 1.81377060375665
25.4960010685027 1.91928453008591
25.5120010692626 2.08988366763301
25.5280010700226 2.09464584153632
25.5440010707825 1.69675592842011
25.5600010715425 1.93084916705243
25.5760010723025 1.91917066070746
25.5920010730624 1.85869901759374
25.6080010738224 2.02212110057915
25.6240010745823 2.14995328111661
25.6400010753423 2.03334528507571
25.6560010761023 2.23486192145382
25.6720010768622 2.17905796128596
25.6880010776222 2.04729425021361
25.7040010783821 2.20739101185372
25.7200010791421 1.7098946501735
25.736001079902 1.65601328724363
25.752001080662 1.57177189560769
25.768001081422 1.65096508503575
25.7840010821819 2.01082151689749
25.8000010829419 2.14293341435165
25.8160010837018 1.99069797456678
25.8320010844618 1.98796917530702
25.8480010852218 1.7408922581883
25.8640010859817 1.44880415690065
25.8800010867417 1.77456483505837
25.8960010875016 1.70803608134718
25.9120010882616 1.70258217574404
25.9280010890216 1.73027177607211
25.9440010897815 1.93094234710192
25.9600010905415 1.83461102487959
25.9760010913014 1.92838005004889
25.9920010920614 1.78729881153956
26.0080010928214 1.9442942097318
26.0240010935813 2.0561950436791
26.0400010943413 1.67849086704293
26.0560010951012 1.8811465247873
26.0720010958612 2.02645227674228
26.0880010966212 2.00263191901739
26.1040010973811 2.10636123850684
26.1200010981411 1.89998704951413
26.136001098901 1.94548248004721
26.152001099661 2.04637142638298
26.1680011004209 2.27752246616521
26.1840011011809 2.23103873166662
26.2000011019409 2.33076857672472
26.2160011027008 2.39157581761171
26.2320011034608 2.45942414993808
26.2480011042207 2.8423480088388
26.2640011049807 2.86882525925608
26.2800011057407 3.12385732270637
26.2960011065006 3.43024057891695
26.3120011072606 3.51493882083897
26.3280011080205 4.02272176064773
26.3440011087805 4.23335949518632
26.3600011095405 4.25925013161573
26.3760011103004 4.59129231368916
26.3920011110604 4.96046881552376
26.4080011118203 5.68278795239669
26.4240011125803 6.15642270158622
26.4400011133403 7.01523543891243
26.4560011141002 8.45666307535612
26.4720011148602 9.91566709381117
26.4880011156201 12.6344983732241
26.5040011163801 16.2719365448177
26.5200011171401 22.3131928606576
26.5360011179 31.3897938244321
26.55200111866 46.2361697068239
26.5680011194199 68.6307385042289
26.5840011201799 94.985831376515
26.6000011209398 110.230487123098
26.6160011216998 96.2093226789331
26.6320011224598 72.0882153392753
26.6480011232197 63.6144949445305
26.6640011239797 63.8672352860565
26.6800011247396 53.645731558593
26.6960011254996 34.6676309493493
26.7120011262596 21.3970127382116
26.7280011270195 15.2175189952977
26.7440011277795 12.3051421064325
26.7600011285394 10.4414785099476
26.7760011292994 8.94034471421204
26.7920011300594 8.12313741558434
26.8080011308193 7.41583695505326
26.8240011315793 6.43360867472129
26.8400011323392 5.98686683277466
26.8560011330992 5.39127741137494
26.8720011338592 4.42179966836199
26.8880011346191 3.77039861882579
26.9040011353791 3.33085689919984
26.920001136139 3.08161425020756
26.936001136899 2.9593114284133
26.952001137659 2.63301195984554
26.9680011384189 2.16790300255759
26.9840011391789 2.49284791770425
27.0000011399388 2.50525598738118
27.0160011406988 2.29330662800342
27.0320011414587 2.08205234515412
27.0480011422187 1.94411058075671
27.0640011429787 1.91125708034636
27.0800011437386 1.95158802837568
27.0960011444986 1.73478337756191
27.1120011452585 1.74213590508397
27.1280011460185 1.77417634368913
27.1440011467785 1.64197142924903
27.1600011475384 1.71303164653789
27.1760011482984 2.10170974205066
27.1920011490583 1.7548364802474
27.2080011498183 1.70619566227359
27.2240011505783 1.61111109556787
27.2400011513382 1.68263041900285
27.2560011520982 1.53398421977656
27.2720011528581 1.36262079444469
27.2880011536181 1.62217896509947
27.3040011543781 1.43786818239188
27.320001155138 1.54674613646081
27.336001155898 1.99410950587479
27.3520011566579 1.86230644770439
27.3680011574179 1.99545284772249
27.3840011581778 1.97213681851438
27.4000011589378 1.85766062606809
27.4160011596978 2.3782681970614
27.4320011604577 2.22095306189728
27.4480011612177 1.77404589691187
27.4640011619776 2.00833650068781
27.4800011627376 2.20345077940332
27.4960011634976 2.18333226254886
27.5120011642575 1.68980931834228
27.5280011650175 1.38459502015787
27.5440011657774 1.41154578755373
27.5600011665374 1.52768625614305
27.5760011672974 1.55659273071745
27.5920011680573 1.60943842070739
27.6080011688173 1.11516930818613
27.6240011695772 1.5283319852131
27.6400011703372 1.882390633662
27.6560011710972 2.08139810256137
27.6720011718571 2.10358509849526
27.6880011726171 2.16093781279493
27.704001173377 2.90736557943402
27.720001174137 3.45049796879522
27.7360011748969 3.35316365204017
27.7520011756569 2.99934639501151
27.7680011764169 2.69498305775884
27.7840011771768 2.5812141450508
27.8000011779368 2.66739649019059
27.8160011786967 2.34189308836005
27.8320011794567 2.20211597890335
27.8480011802167 2.45860485344131
27.8640011809766 2.99213188802624
27.8800011817366 4.58407023106037
27.8960011824965 4.33713481206345
27.9120011832565 2.83818232020729
27.9280011840165 2.69205222339025
27.9440011847764 3.65527342764433
27.9600011855364 4.58178147259483
27.9760011862963 3.9260437142266
27.9920011870563 3.24904318725854
28.0080011878163 2.28092790217718
28.0240011885762 2.01144620776346
28.0400011893362 2.15672373532056
28.0560011900961 2.0530794627155
28.0720011908561 1.79751239768036
28.0880011916161 1.58232999717212
28.104001192376 1.23016769039777
28.120001193136 1.27000631074057
28.1360011938959 1.28228764589384
28.1520011946559 1.27799400622435
28.1680011954158 1.35775801820506
28.1840011961758 1.33903844839287
28.2000011969358 1.02351798398031
28.2160011976957 1.01883889682299
28.2320011984557 0.999583910351818
28.2480011992156 1.15845559423459
28.2640011999756 1.25415667653318
28.2800012007356 1.19388230371739
28.2960012014955 1.33346498610696
28.3120012022555 1.28734226828325
28.3280012030154 1.0378130583466
28.3440012037754 0.983564192297699
28.3600012045354 1.23178916088049
28.3760012052953 1.26059768794426
28.3920012060553 0.865209135300692
28.4080012068152 0.879301316560178
28.4240012075752 0.767279103419412
28.4400012083352 0.748708013429113
28.4560012090951 0.70027545641868
28.4720012098551 0.965333360596147
28.488001210615 1.16068848591635
28.504001211375 0.935835663485348
28.520001212135 0.776534233890872
28.5360012128949 1.04208746032641
28.5520012136549 0.905550356070409
28.5680012144148 0.772177927516664
28.5840012151748 0.870516500234987
28.6000012159347 0.656213817692086
28.6160012166947 0.74635295561544
28.6320012174547 0.55067446514182
28.6480012182146 0.644790903918212
28.6640012189746 0.805362982197479
28.6800012197345 0.716385801160888
28.6960012204945 0.504217079982912
28.7120012212545 0.786908619284564
28.7280012220144 0.968735478254058
28.7440012227744 0.685424083954092
28.7600012235343 0.856724463329443
28.7760012242943 0.693692315094269
28.7920012250543 0.38762926666258
28.8080012258142 0.650714955072372
28.8240012265742 0.62995262763703
28.8400012273341 0.544328751139681
28.8560012280941 0.62414072756284
28.8720012288541 0.771887457194383
28.888001229614 0.588803383403866
28.904001230374 0.559448218638941
28.9200012311339 0.673602283363287
28.9360012318939 0.812899229513592
28.9520012326538 0.687821374592071
28.9680012334138 0.982743697425205
28.9840012341738 1.35801014938527
29.0000012349337 1.28249883317636
29.0160012356937 1.14229054210881
29.0320012364536 1.25814046873124
29.0480012372136 1.46914355203611
29.0640012379736 1.75795694791602
29.0800012387335 1.80130961162579
29.0960012394935 1.43998579805664
29.1120012402534 1.40051081000924
29.1280012410134 1.58888591417746
29.1440012417734 1.28076212270949
29.1600012425333 1.02802872692874
29.1760012432933 1.25006235365409
29.1920012440532 1.11113469705069
29.2080012448132 0.957698924370114
29.2240012455732 0.751779239513122
29.2400012463331 0.645495749307372
29.2560012470931 0.740118245857863
29.272001247853 0.732088863611483
29.288001248613 0.827870481454817
29.304001249373 0.784597527673284
29.3200012501329 0.559521752475246
29.3360012508929 0.514398850376879
29.3520012516528 0.455332896684406
29.3680012524128 0.539757328187715
29.3840012531727 0.606948014390167
29.4000012539327 0.660114734761897
29.4160012546927 0.774050817617093
29.4320012554526 0.632711573975508
29.4480012562126 0.65256235046674
29.4640012569725 0.867752062165376
29.4800012577325 0.841026431946109
29.4960012584925 0.895901470833574
29.5120012592524 0.998439035246513
29.5280012600124 0.956780773350456
29.5440012607723 0.902085417131575
29.5600012615323 0.955326174323265
29.5760012622923 0.504430412879316
29.5920012630522 0.405012869323595
29.6080012638122 0.711873190942479
29.6240012645721 0.952947122551551
29.6400012653321 0.98778276355488
29.6560012660921 0.842485390334581
29.672001266852 0.712584102232973
29.688001267612 0.801034112597483
29.7040012683719 0.986010300772846
29.7200012691319 0.912892043180143
29.7360012698919 0.654484518541886
29.7520012706518 0.691834393706865
29.7680012714118 0.835150276139168
29.7840012721717 0.863925959012791
29.8000012729317 0.811560508722523
29.8160012736916 1.02258410860937
29.8320012744516 1.0911730472804
29.8480012752116 1.12504259429788
29.8640012759715 0.932349137488573
29.8800012767315 0.831441333825026
29.8960012774914 1.22487963760202
29.9120012782514 1.15418389570513
29.9280012790114 1.05801273174341
29.9440012797713 0.759534883686413
29.9600012805313 0.736200961862528
29.9760012812912 0.790515220859975
29.9920012820512 0.894723194367865
30.0080012828112 0.647212935402647
30.0240012835711 0.727065405385605
30.0400012843311 0.629211661264149
30.056001285091 0.845222288713008
30.072001285851 0.687757529330908
30.088001286611 0.658821570359198
30.1040012873709 0.634622696991475
30.1200012881309 0.610681197304892
30.1360012888908 0.964554616251766
30.1520012896508 1.04137394345415
30.1680012904107 0.921793909214069
30.1840012911707 0.85282773219989
30.2000012919307 1.02891603610541
30.2160012926906 0.88595659373941
30.2320012934506 1.45501403033414
30.2480012942105 2.29521113899165
30.2640012949705 1.57626943250413
30.2800012957305 1.228253298981
30.2960012964904 1.19869108766656
30.3120012972504 0.889599789375662
30.3280012980103 1.36712411282815
30.3440012987703 1.45566118821736
30.3600012995303 0.885126539762259
30.3760013002902 0.697442536787352
30.3920013010502 0.86937140793566
30.4080013018101 0.622123784099276
30.4240013025701 0.982137529110005
30.4400013033301 0.959691701478765
30.45600130409 0.989050860701708
30.47200130485 1.08131217616091
30.4880013056099 0.581161230865621
30.5040013063699 0.837191027170176
30.5200013071299 0.719239270526947
30.5360013078898 0.566988732326143
30.5520013086498 0.612763247052775
30.5680013094097 0.628557227374922
30.5840013101697 0.67473649900165
30.6000013109296 0.751098925126589
30.6160013116896 0.609856832197833
30.6320013124496 0.630740326523872
30.6480013132095 0.894223362082852
30.6640013139695 0.879149389606951
30.6800013147294 0.495060288303488
30.6960013154894 0.623480062910048
30.7120013162494 0.555375112905831
30.7280013170093 0.543902553638099
30.7440013177693 0.664358785872941
30.7600013185292 0.664469880025258
30.7760013192892 0.305217689421782
30.7920013200492 0.482761515605743
30.8080013208091 0.655278861838323
30.8240013215691 0.483525824883492
30.840001322329 0.495553258942614
30.856001323089 0.564542150759316
30.872001323849 0.646039460539598
30.8880013246089 0.700516857635904
30.9040013253689 0.496055492558441
30.9200013261288 0.711096261275592
30.9360013268888 0.555945941761666
30.9520013276488 0.604386573873945
30.9680013284087 0.771710854162412
30.9840013291687 0.606739270579423
31.0000013299286 0.713769003465061
31.0160013306886 0.884684018028093
31.0320013314485 1.04800924558118
31.0480013322085 1.1414796820115
31.0640013329685 1.22465308968046
31.0800013337284 1.23061781099341
31.0960013344884 1.08760873548459
31.1120013352483 0.956052162871369
31.1280013360083 1.01686600172692
31.1440013367683 1.10973701590681
31.1600013375282 1.21267804727319
31.1760013382882 1.17206459057008
31.1920013390481 0.908539251860735
31.2080013398081 0.903328236342543
31.2240013405681 1.00417289965105
31.240001341328 1.01302014109023
31.256001342088 0.993495764863509
31.2720013428479 0.95273167688087
31.2880013436079 1.16094426300506
31.3040013443679 1.03307534265194
31.3200013451278 0.770323147768051
31.3360013458878 0.987659314331014
31.3520013466477 1.05729957698717
31.3680013474077 0.965658374380334
31.3840013481677 0.83518825383491
31.4000013489276 0.671235543817129
31.4160013496876 0.794470038229431
31.4320013504475 0.666573624026666
31.4480013512075 0.674061513767803
31.4640013519674 0.626157599535321
31.4800013527274 0.747183693573528
31.4960013534874 0.656692430100771
31.5120013542473 0.652111764410405
31.5280013550073 0.749437971954077
31.5440013557672 0.623080118459902
31.5600013565272 0.759881053236279
31.5760013572872 0.978386428935553
31.5920013580471 0.628346890761069
31.6080013588071 0.758362073081202
31.624001359567 0.67949437981047
31.640001360327 0.403028005755079
31.656001361087 0.760602114468537
31.6720013618469 0.894033084690093
31.6880013626069 0.630102221934746
31.7040013633668 0.619137352729298
31.7200013641268 1.18301199715955
31.7360013648868 0.772175975502244
31.7520013656467 0.508774941387141
31.7680013664067 0.702833898145966
31.7840013671666 0.839704133896663
31.8000013679266 0.858672391268735
31.8160013686865 0.743278810848793
31.8320013694465 0.661616103724814
31.8480013702065 0.676327851340902
31.8640013709664 0.577409155555872
31.8800013717264 0.759520263104823
31.8960013724863 0.892815249268434
31.9120013732463 0.644119089407146
31.9280013740063 0.62188256014715
31.9440013747662 0.662760279981979
31.9600013755262 0.604077181285275
31.9760013762861 0.608717999789807
31.9920013770461 0.774810353338979
32.0080013778061 0.693615083919844
32.024001378566 0.551931838083349
32.040001379326 0.708403464452007
32.0560013800859 0.942092999711942
32.0720013808459 0.690830145367549
32.0880013816059 0.847676254948797
32.1040013823658 0.534217085120802
32.1200013831258 0.421078237351439
32.1360013838857 0.611317612807214
32.1520013846457 0.845536187987896
32.1680013854057 0.827963488358678
32.1840013861656 0.459310660363082
32.2000013869256 0.499679267550597
32.2160013876855 0.5461213282159
32.2320013884455 0.391809952841336
32.2480013892054 0.481277587408286
32.2640013899654 0.884519923424788
32.2800013907254 0.750970448156001
32.2960013914853 0.302240007625095
32.3120013922453 0.508314313066218
32.3280013930052 1.09256998063928
32.3440013937652 0.581609569885368
32.3600013945252 0.356390127388571
32.3760013952851 0.604351457966142
32.3920013960451 0.783563268629377
32.408001396805 0.579555526492009
32.424001397565 0.532908200859051
32.440001398325 0.725486533621368
32.4560013990849 0.835288441038549
32.4720013998449 0.865908707057274
32.4880014006048 0.668525544631296
32.5040014013648 0.48423089596535
32.5200014021248 0.57723309424071
32.5360014028847 0.392169880925981
32.5520014036447 0.456338096729993
32.5680014044046 0.765049554458484
32.5840014051646 0.847394963180554
32.6000014059246 0.957399959437212
32.6160014066845 0.585349385696311
32.6320014074445 0.502183691623372
32.6480014082044 0.633838113819668
32.6640014089644 0.65902190235049
32.6800014097243 0.590067300998674
32.6960014104843 0.58923945335292
32.7120014112443 0.48538265302929
32.7280014120042 0.415190075447848
32.7440014127642 0.689671556410921
32.7600014135241 0.643853512298396
32.7760014142841 0.759538311408124
32.7920014150441 0.633430953262226
32.808001415804 0.679194372689014
32.824001416564 0.607829533518053
32.8400014173239 0.605403319248444
32.8560014180839 0.488861276235186
32.8720014188439 0.421330988967299
32.8880014196038 0.481465602504105
32.9040014203638 0.66378621027972
32.9200014211237 0.564992026463182
32.9360014218837 0.535197709581306
32.9520014226437 0.63230125658913
32.9680014234036 0.576414000683205
32.9840014241636 0.878977519729063
33.0000014249235 0.67331811146191
33.0160014256835 0.725706153593873
33.0320014264435 1.07435255557139
33.0480014272034 0.835885698565383
33.0640014279634 0.679567158337876
33.0800014287233 0.402069223718541
33.0960014294833 0.443055861531448
33.1120014302432 0.493770261374962
33.1280014310032 0.548016897950681
33.1440014317632 0.625180377766881
33.1600014325231 0.545596071355293
33.1760014332831 0.70590399431037
33.192001434043 0.800327218225379
33.208001434803 0.725186928493771
33.224001435563 0.600575542058312
33.2400014363229 0.520725969390109
33.2560014370829 1.00355094245792
33.2720014378428 0.61382917190581
33.2880014386028 0.382623747476922
33.3040014393628 0.645248103028988
33.3200014401227 0.684133975140957
33.3360014408827 0.809907487382716
33.3520014416426 0.993037967018847
33.3680014424026 0.727558731629215
33.3840014431626 0.671421804088465
33.4000014439225 0.645571544210845
33.4160014446825 0.838311276260952
33.4320014454424 0.825037592310216
33.4480014462024 0.69136671580187
33.4640014469623 0.562822222362236
33.4800014477223 0.683829868634341
33.4960014484823 0.523249713765129
33.5120014492422 0.489147848020026
33.5280014500022 0.710896793663013
33.5440014507621 0.506899215257946
33.5600014515221 0.484302049828312
33.5760014522821 0.628593215603289
33.592001453042 0.580498653606012
33.608001453802 0.683232109600544
33.6240014545619 0.658726047043112
33.6400014553219 0.537397785824616
33.6560014560819 0.539579645062938
33.6720014568418 0.367527763166191
33.6880014576018 0.392469966062023
33.7040014583617 0.697786426687016
33.7200014591217 0.895828242116111
33.7360014598817 0.671467453840656
33.7520014606416 0.478620163989675
33.7680014614016 0.688491648932346
33.7840014621615 0.612128062537076
33.8000014629215 0.422156206891797
33.8160014636815 0.553920592692274
33.8320014644414 0.569714586166255
33.8480014652014 0.623970266312819
33.8640014659613 0.731189298868729
33.8800014667213 0.905984511977946
33.8960014674812 0.496168043012316
33.9120014682412 0.697784653335615
33.9280014690012 0.930208843655386
33.9440014697611 0.765561116183632
33.9600014705211 0.443911899912835
33.976001471281 0.480668370575962
33.992001472041 0.497517129658101
34.008001472801 0.434342174446591
34.0240014735609 0.695755045950488
34.0400014743209 0.511187638939611
34.0560014750808 0.47165231034963
34.0720014758408 0.713707613506188
34.0880014766008 0.74028002975341
34.1040014773607 0.7177949817492
34.1200014781207 0.415457125086638
34.1360014788806 0.917030476287688
34.1520014796406 1.07056879743989
34.1680014804006 1.09698865234399
34.1840014811605 0.981973099781783
34.2000014819205 0.713152405665288
34.2160014826804 0.582205889764098
34.2320014834404 0.485792479063975
34.2480014842004 0.629618729119022
34.2640014849603 0.734589128349869
34.2800014857203 0.745524210938545
34.2960014864802 0.867816786956888
34.3120014872402 0.877882607687605
34.3280014880001 0.991434473340928
34.3440014887601 0.949096133568547
34.3600014895201 1.04682486138855
34.37600149028 1.19398713219095
34.39200149104 1.13893491449096
34.4080014917999 1.21837497226301
34.4240014925599 1.53308759447562
34.4400014933199 1.57903743831542
34.4560014940798 1.51021987560925
34.4720014948398 1.5523542662887
34.4880014955997 1.72943348081677
34.5040014963597 2.02451934373481
34.5200014971197 1.85517415942418
34.5360014978796 1.8390952167328
34.5520014986396 2.02418136405972
34.5680014993995 2.04834712492969
34.5840015001595 2.12321683474707
34.6000015009195 2.01538055999397
34.6160015016794 1.79241825476196
34.6320015024394 2.09237371470789
34.6480015031993 2.38911553382212
34.6640015039593 2.18241173011091
34.6800015047193 2.19434285901819
34.6960015054792 2.54292744953762
34.7120015062392 2.51484665436725
34.7280015069991 2.64221156304532
34.7440015077591 2.84312288421513
34.760001508519 2.93361456014704
34.776001509279 2.82613527275128
34.792001510039 2.66313116453977
34.8080015107989 3.05625378127608
34.8240015115589 3.27695369131364
34.8400015123188 3.34065187643731
34.8560015130788 3.68445713416878
34.8720015138388 3.80190567715334
34.8880015145987 3.47171447066641
34.9040015153587 3.81116089395517
34.9200015161186 4.24913769339345
34.9360015168786 3.79922681111121
34.9520015176386 3.93605439255863
34.9680015183985 4.13101406631874
34.9840015191585 4.13528126691845
35.0000015199184 3.92118338102081
35.0160015206784 3.46691866174542
35.0320015214384 3.82496986462037
35.0480015221983 3.68186459784348
35.0640015229583 3.57600487028833
35.0800015237182 3.20145208422799
35.0960015244782 3.13876530971255
35.1120015252381 3.21276889763547
35.1280015259981 3.2072979496856
35.1440015267581 2.99689115048049
35.160001527518 2.62801072823086
35.176001528278 2.79120230715244
35.1920015290379 2.47666451202347
35.2080015297979 2.31018338329969
35.2240015305579 2.38312480826205
35.2400015313178 2.69438383587962
35.2560015320778 2.43060546306483
35.2720015328377 2.21010488066085
35.2880015335977 2.5204349839861
35.3040015343577 2.59898423080999
35.3200015351176 2.25801236397534
35.3360015358776 2.11770653781163
35.3520015366375 2.34354693799663
35.3680015373975 2.67268567063693
35.3840015381575 2.5245525310386
35.4000015389174 2.42753920055281
35.4160015396774 2.54165938887521
35.4320015404373 2.64879047485817
35.4480015411973 2.18080200705786
35.4640015419573 2.00415411709582
35.4800015427172 2.08440646022178
35.4960015434772 2.10269969165809
35.5120015442371 1.92928572350859
35.5280015449971 1.72634394352322
35.544001545757 1.8485690576957
35.560001546517 1.89276698261032
35.576001547277 2.19511343488583
35.5920015480369 1.89182051188986
35.6080015487969 1.85704969954312
35.6240015495568 1.86671592352658
35.6400015503168 1.99338129669892
35.6560015510768 2.13443471150257
35.6720015518367 2.01854192111537
35.6880015525967 1.79682860254932
35.7040015533566 1.90551598078151
35.7200015541166 1.99925978116398
35.7360015548766 2.02064657927473
35.7520015556365 2.12721567681431
35.7680015563965 1.99194826358551
35.7840015571564 1.87672163555887
35.8000015579164 2.12947599730924
35.8160015586764 1.8807716876731
35.8320015594363 2.19621284344867
35.8480015601963 2.14348587616024
35.8640015609562 2.26165456512006
35.8800015617162 2.40518594223467
35.8960015624762 2.28126313878352
35.9120015632361 2.30898754667879
35.9280015639961 2.20813551234383
35.944001564756 2.33047454825372
35.960001565516 2.63059327369482
35.9760015662759 2.03392170973323
35.9920015670359 1.9566907071218
36.0080015677959 2.15988478595068
36.0240015685558 2.35339454742619
36.0400015693158 2.32277334080813
36.0560015700757 1.88050878704781
36.0720015708357 1.89371912665562
36.0880015715957 2.00282550066023
36.1040015723556 1.74300909530085
36.1200015731156 1.62466353685676
36.1360015738755 2.01270748017027
36.1520015746355 1.82473304215994
36.1680015753955 1.55798587463746
36.1840015761554 1.41569565647621
36.2000015769154 1.4791559285721
36.2160015776753 1.75535105192574
36.2320015784353 1.74425044286914
36.2480015791953 1.85355112782761
36.2640015799552 1.97696721985937
36.2800015807152 1.97395749709638
36.2960015814751 1.95380148950594
36.3120015822351 1.81050799512158
36.328001582995 1.98455686529046
36.344001583755 2.03392432519901
36.360001584515 2.09453614251553
36.3760015852749 2.20635461028781
36.3920015860349 2.58848873676124
36.4080015867948 3.01805738730537
36.4240015875548 3.19222159063035
36.4400015883148 4.08697618109779
36.4560015890747 5.18126163978352
36.4720015898347 6.1953967208503
36.4880015905946 7.75953722137015
36.5040015913546 8.48205704309492
36.5200015921146 7.34756743704328
36.5360015928745 5.9033109355162
36.5520015936345 5.20298355856553
36.5680015943944 5.22100015240266
36.5840015951544 5.40475091199134
36.6000015959144 5.05075979110632
36.6160015966743 4.175010444356
36.6320015974343 3.49428562580632
36.6480015981942 2.7892166482496
36.6640015989542 2.3431790435452
36.6800015997142 2.46608599874253
36.6960016004741 2.49486675525623
36.7120016012341 2.20785649815697
36.728001601994 2.23677035912921
36.744001602754 1.99689773430272
36.7600016035139 1.47386753783651
36.7760016042739 1.49186484738922
36.7920016050339 1.67336396158108
36.8080016057938 1.85264660530273
36.8240016065538 1.70492377589753
36.8400016073137 1.61310713527204
36.8560016080737 1.42849245627627
36.8720016088337 1.34779288136126
36.8880016095936 1.55886389908079
36.9040016103536 1.36843535676938
36.9200016111135 1.21717156137963
36.9360016118735 1.32295246875609
36.9520016126335 1.25031615568049
36.9680016133934 1.3272488560963
36.9840016141534 1.60328560000707
37.0000016149133 1.44053089023844
37.0160016156733 1.27916125244621
37.0320016164333 1.41285122736489
37.0480016171932 1.32876361229839
37.0640016179532 1.28190893931482
37.0800016187131 1.15111781274671
37.0960016194731 1.37983092519403
37.1120016202331 1.47988356917811
37.128001620993 1.19115073143391
37.144001621753 1.05272568125553
37.1600016225129 1.19225451936479
37.1760016232729 1.23397544634468
37.1920016240328 1.2387791247691
37.2080016247928 0.987874418113305
37.2240016255528 1.04130173600554
37.2400016263127 1.29484141884959
37.2560016270727 1.46598182965613
37.2720016278326 1.29519870007769
37.2880016285926 1.29806530196746
37.3040016293526 1.16109641160018
37.3200016301125 1.35518214561992
37.3360016308725 1.49806675057696
37.3520016316324 1.8118995143874
37.3680016323924 1.53808179354379
37.3840016331524 1.35964924498127
37.4000016339123 1.43609638626476
37.4160016346723 1.58488102139819
37.4320016354322 1.74404282267319
37.4480016361922 1.46550177523063
37.4640016369522 1.20250742973228
37.4800016377121 1.38259558869702
37.4960016384721 1.54998515857483
37.512001639232 1.63945803926228
37.528001639992 1.78288761190693
37.544001640752 1.62586862026337
37.5600016415119 1.64576490758035
37.5760016422719 1.92109284636347
37.5920016430318 2.23744899136017
37.6080016437918 2.50072022714225
37.6240016445517 2.31011233262896
37.6400016453117 2.29275889478667
37.6560016460717 2.31583567112692
37.6720016468316 2.47531249174915
37.6880016475916 2.58778294226654
37.7040016483515 2.15196529842722
37.7200016491115 1.96032246275873
37.7360016498715 2.09490777652989
37.7520016506314 2.11121807389943
37.7680016513914 2.0003629038044
37.7840016521513 1.8593718080582
37.8000016529113 1.67654085886493
37.8160016536713 1.59109531791358
37.8320016544312 1.8249372411332
37.8480016551912 1.73520843203717
37.8640016559511 1.66495039222702
37.8800016567111 1.95463872420668
37.8960016574711 1.61977877640052
37.912001658231 1.39903049425772
37.928001658991 1.67548609318575
37.9440016597509 1.63638739726104
37.9600016605109 1.69116492716933
37.9760016612708 1.42907877787513
37.9920016620308 1.59425710796862
38.0080016627908 1.44540494950306
38.0240016635507 1.56129276869283
38.0400016643107 1.6958036482705
38.0560016650706 1.53866387165179
38.0720016658306 1.31294364935979
38.0880016665906 1.50018299513139
38.1040016673505 1.77640353409482
38.1200016681105 1.6020954268918
38.1360016688704 1.68941265947304
38.1520016696304 1.55819264272302
38.1680016703904 1.64437613194384
38.1840016711503 1.36709714606379
38.2000016719103 1.46653845424497
38.2160016726702 1.66966337263327
38.2320016734302 1.75225140371935
38.2480016741902 1.80833679274452
38.2640016749501 1.50075884931804
38.2800016757101 1.7591439247143
38.29600167647 2.00850510926042
38.31200167723 1.71447480785868
38.32800167799 1.6814621300467
38.3440016787499 2.17203685796316
38.3600016795099 2.40688125710245
38.3760016802698 2.29405959081213
38.3920016810298 2.24049954567364
38.4080016817897 2.05949244876125
38.4240016825497 2.11894510485594
38.4400016833097 1.99008990265824
38.4560016840696 1.91064782183163
38.4720016848296 2.20062158850148
38.4880016855895 2.32821092580052
38.5040016863495 2.2932825492383
38.5200016871095 2.20555899490581
38.5360016878694 1.96276951987973
38.5520016886294 2.41213718725433
38.5680016893893 2.08180971509437
38.5840016901493 1.81759018691097
38.6000016909093 1.7506183254815
38.6160016916692 1.66415135972575
38.6320016924292 1.81311205544376
38.6480016931891 1.6848715056738
38.6640016939491 1.71934092408421
38.6800016947091 1.8818665857914
38.696001695469 1.80227762298503
38.712001696229 1.3881125950421
38.7280016969889 1.59659178671892
38.7440016977489 1.60963744817729
38.7600016985089 1.52347947412879
38.7760016992688 1.61242909707323
38.7920017000288 1.68470159199366
38.8080017007887 1.44905007305834
38.8240017015487 1.43353194498313
38.8400017023086 1.50993747966927
38.8560017030686 1.2087432845778
38.8720017038286 1.00445486382197
38.8880017045885 1.19088503929792
38.9040017053485 1.15564961009497
38.9200017061084 1.15509194086755
38.9360017068684 1.14794967751761
38.9520017076284 1.10642249202382
38.9680017083883 1.15953968140621
38.9840017091483 1.07107398287295
39.0000017099082 0.948566931398228
39.0160017106682 1.09369042220043
39.0320017114282 1.32747078720454
39.0480017121881 1.16417425641396
39.0640017129481 1.45209520482421
39.080001713708 1.23138419435014
39.096001714468 1.14030835851472
39.112001715228 1.27381566169065
39.1280017159879 1.30095224588962
39.1440017167479 1.19182378588609
39.1600017175078 1.47792545518332
39.1760017182678 1.28668391215822
39.1920017190278 1.1885928885783
39.2080017197877 1.56805577234497
39.2240017205477 1.57168799236071
39.2400017213076 1.46208006977926
39.2560017220676 1.67502397422662
39.2720017228275 1.78216537808649
39.2880017235875 1.60160667695847
39.3040017243475 1.93962542729307
39.3200017251074 2.08459689444088
39.3360017258674 2.08357319312077
39.3520017266273 2.56499367199595
39.3680017273873 3.00308744438651
39.3840017281473 3.93495571396454
39.4000017289072 5.44972080914589
39.4160017296672 6.3111638086378
39.4320017304271 5.9827998463504
39.4480017311871 5.0373948511256
39.4640017319471 3.87175669209021
39.480001732707 3.27521421896812
39.496001733467 3.42358882803525
39.5120017342269 3.71294625587411
39.5280017349869 3.85934321797136
39.5440017357469 3.09396715141283
39.5600017365068 2.09667710168671
39.5760017372668 1.25361145344947
39.5920017380267 0.938110547877867
39.6080017387867 1.00808149401097
39.6240017395466 1.17817707491023
39.6400017403066 1.21687925805004
39.6560017410666 0.940345600871866
39.6720017418265 0.634618011018198
39.6880017425865 0.95715549915254
39.7040017433464 0.9191621946729
39.7200017441064 0.944756216191871
39.7360017448664 0.990406862369287
39.7520017456263 0.81226851416292
39.7680017463863 0.788809887999316
39.7840017471462 0.676604951849914
39.8000017479062 0.651576022818833
39.8160017486662 0.74151464346425
39.8320017494261 0.977817395653594
39.8480017501861 0.679956618937421
39.864001750946 0.881344527910994
39.880001751706 0.996917597599468
39.896001752466 0.919670515269615
39.9120017532259 1.06040843732424
39.9280017539859 0.842994539312238
39.9440017547458 0.662111792385877
39.9600017555058 0.974277770017743
39.9760017562658 1.06636802430379
39.9920017570257 0.913455526785019
