'Id: "" Comment: "" Operator: "Lab Manager" Anode: "Cu" Scantype: "Locked Coupled" TimePerStep: "157.8621" 
3 1.32565161012211
3.01600000075996 1.23386451077052
3.03200000151992 1.48895310778236
3.04800000227988 1.1380763188906
3.06400000303984 1.28881758222376
3.0800000037998 1.59271399694039
3.09600000455976 1.2179234585783
3.11200000531971 0.929151589994982
3.12800000607967 0.757402651939779
3.14400000683963 0.371130951043041
3.16000000759959 0.0356920930807991
3.17600000835955 0.542827672773166
3.19200000911951 0.781864845565051
3.20800000987947 0.732598102612622
3.22400001063943 0.718845383925812
3.24000001139939 0.88492744539983
3.25600001215935 0.67012578859333
3.27200001291931 0.14523850314467
3.28800001367927 0.23360420627772
3.30400001443923 0.714570727004007
3.32000001519918 0.750828476923187
3.33600001595914 0.298913708562997
3.3520000167191 0.363505207792178
3.36800001747906 0.935184892661452
3.38400001823902 1.1000176726572
3.40000001899898 0.751119202908539
3.41600001975894 0.528689812643437
3.4320000205189 0.376823447404762
3.44800002127886 0.295514457435951
3.46400002203882 0.418324527857626
3.48000002279878 0.607771345388956
3.49600002355874 0.559050858390369
3.5120000243187 0.0590556037410277
3.52800002507865 0.565280382985419
3.54400002583861 0.490589021970864
3.56000002659857 0.00916474340590234
3.57600002735853 0.574078194741949
3.59200002811849 0.68943895489347
3.60800002887845 0.414385253249348
3.62400002963841 0.327859433214821
3.64000003039837 0.376210617072113
3.65600003115833 0.723597139768453
3.67200003191829 0.54972962622522
3.68800003267825 0.207299699859925
3.70400003343821 0.919790412266808
3.72000003419816 0.580414300537308
3.73600003495812 0.70046968844642
3.75200003571808 0.802210367299997
3.76800003647804 0.540985173943069
3.784000037238 1.33129389455103
3.80000003799796 1.24830542085482
3.81600003875792 0.483778527658435
3.83200003951788 0.763351944398069
3.84800004027784 0.712075551156817
3.8640000410378 0.35186443581261
3.88000004179776 0.397323256094056
3.89600004255772 0.280393721165842
3.91200004331768 0.496624233050776
3.92800004407763 0.254154361318365
3.94400004483759 0.0140815048791776
3.96000004559755 0.640448199163339
3.97600004635751 0.864258080843845
3.99200004711747 0.852242764406883
4.00800004787743 0.54688890923107
4.02400004863739 0.877750838496395
4.04000004939735 0.445502858753807
4.05600005015731 0.613800369823084
4.07200005091727 0.467744302124865
4.08800005167723 0.0252371615677465
4.10400005243719 0.414204496098394
4.12000005319715 0.593321378500848
4.1360000539571 0.415293974324202
4.15200005471706 0.50495400762143
4.16800005547702 0.681333882354975
4.18400005623698 0.443021080494232
4.20000005699694 0.338095642605266
4.2160000577569 0.326012936756237
4.23200005851686 0.312487175952464
4.24800005927682 0.185042744260171
4.26400006003678 0.450213883100902
4.28000006079674 0.779181969510253
4.2960000615567 0.718437529008783
4.31200006231666 0.378314344864728
4.32800006307662 0.283276583974081
4.34400006383657 0.336437931984134
4.36000006459653 0.102226867603035
4.37600006535649 0.288249134017756
4.39200006611645 0.625472576318339
4.40800006687641 0.600052965045426
4.42400006763637 0.343921511430912
4.44000006839633 0.186930407027548
4.45600006915629 0.174919465373863
4.47200006991625 0.364070803892782
4.48800007067621 0.429366759484219
4.50400007143617 0.4987386612445
4.52000007219613 0.194839900084338
4.53600007295609 0.139177764460234
4.55200007371604 0.525715524572847
4.568000074476 0.615798508766877
4.58400007523596 0.382134976546626
4.60000007599592 0.542311964484371
4.61600007675588 0.611802939533854
4.63200007751584 0.465311491453603
4.6480000782758 0.00609456589677571
4.66400007903576 0.269344204518459
4.68000007979572 1.01603701535939
4.69600008055568 0.615949577068454
4.71200008131564 0.638917732682506
4.7280000820756 0.826603045530218
4.74400008283556 1.03425775387868
4.76000008359551 0.838828139390239
4.77600008435547 0.634223416791544
4.79200008511543 0.738024062610156
4.80800008587539 0.505550707562945
4.82400008663535 0.83954759506762
4.84000008739531 0.730091194173911
4.85600008815527 0.419111112410617
4.87200008891523 0.649200900943397
4.88800008967519 0.318345300261194
4.90400009043515 0.191670794768692
4.92000009119511 0.00981576527188999
4.93600009195507 0.36984944693897
4.95200009271502 0.781091920038184
4.96800009347498 0.863181149236707
4.98400009423494 0.935562889350711
5.0000000949949 0.510340315587504
5.01600009575486 0.504965202184598
5.03200009651482 0.396970485964792
5.04800009727478 0.81985131427439
5.06400009803474 0.830247848016077
5.0800000987947 0.717336065238912
5.09600009955466 0.839183275225102
5.11200010031462 0.695556659431231
5.12800010107458 0.860774203509044
5.14400010183454 0.711932568831577
5.16000010259449 0.501543049497892
5.17600010335445 0.864805849391752
5.19200010411441 1.16146747592389
5.20800010487437 0.775323908343639
5.22400010563433 0.804721639053161
5.24000010639429 0.715587635008456
5.25600010715425 0.914118604865168
5.27200010791421 1.1464542153338
5.28800010867417 1.00015461048046
5.30400010943413 1.42400158784428
5.32000011019409 1.24495053121196
5.33600011095405 0.638572482628669
5.35200011171401 0.390644841587354
5.36800011247396 0.779119948620172
5.38400011323392 1.28326303868897
5.40000011399388 0.880615235559352
5.41600011475384 0.776004355772399
5.4320001155138 1.09779239832033
5.44800011627376 1.1754084007556
5.46400011703372 1.29011315065982
5.48000011779368 1.5053271018632
5.49600011855364 1.58898598243409
5.5120001193136 1.65081515942327
5.52800012007356 1.55209537434011
5.54400012083352 1.16729914045633
5.56000012159348 1.2839892793189
5.57600012235343 1.62340377701319
5.59200012311339 1.48095247038903
5.60800012387335 1.36292406273947
5.62400012463331 1.60961690349017
5.64000012539327 1.23056102519397
5.65600012615323 0.994579259244203
5.67200012691319 1.04220745157378
5.68800012767315 1.00538164620315
5.70400012843311 1.44161769264995
5.72000012919307 1.76369329387938
5.73600012995303 1.67026575156607
5.75200013071299 1.94296278543713
5.76800013147295 1.75541498034775
5.7840001322329 1.2380051014388
5.80000013299286 1.66893194925636
5.81600013375282 1.85564582658578
5.83200013451278 2.09994979900069
5.84800013527274 2.26699754684269
5.8640001360327 1.86722929418359
5.88000013679266 1.5840445265563
5.89600013755262 2.04742989121334
5.91200013831258 2.21616500205728
5.92800013907254 2.51062741448755
5.9440001398325 2.07622943091868
5.96000014059246 1.61744232234514
5.97600014135242 1.81617270923751
5.99200014211237 2.09205786957943
6.00800014287233 2.70484385165616
6.02400014363229 2.65692441929795
6.04000014439225 2.25392177185465
6.05600014515221 2.77078138530535
6.07200014591217 2.76050134489638
6.08800014667213 2.53139566105168
6.10400014743209 2.59461296221902
6.12000014819205 3.31676327672619
6.13600014895201 3.74877998381743
6.15200014971197 3.68660057587872
6.16800015047192 4.16133678165487
6.18400015123188 4.87604750235923
6.20000015199184 4.78030144986164
6.2160001527518 4.32176269561132
6.23200015351176 4.0187896248649
6.24800015427172 3.84402243882206
6.26400015503168 3.75338528704926
6.28000015579164 3.53197078719979
6.2960001565516 3.57940330060084
6.31200015731156 3.54734657134713
6.32800015807152 3.28390322412161
6.34400015883148 3.11315878993961
6.36000015959144 3.71486844439538
6.37600016035139 3.48282921475966
6.39200016111135 2.92305648093871
6.40800016187131 3.4533795633412
6.42400016263127 3.2207166338826
6.44000016339123 3.45871026403394
6.45600016415119 3.30138028015065
6.47200016491115 3.29327693456587
6.48800016567111 3.43195323230008
6.50400016643107 2.93674795956996
6.52000016719103 3.06541592696907
6.53600016795099 3.20709574806915
6.55200016871095 3.27778817926019
6.56800016947091 2.68040610301962
6.58400017023086 2.6122627763493
6.60000017099082 3.14140816626811
6.61600017175078 3.32982843541562
6.63200017251074 3.17611856137479
6.6480001732707 3.56378885919859
6.66400017403066 3.76704222847712
6.68000017479062 3.63174127252216
6.69600017555058 3.299663089033
6.71200017631054 2.96760082012053
6.7280001770705 3.01267643327387
6.74400017783046 2.96225810905516
6.76000017859042 2.8731723636573
6.77600017935038 2.98823787390766
6.79200018011033 3.00734357407054
6.80800018087029 3.67263064475496
6.82400018163025 4.06666736184091
6.84000018239021 3.76795725265346
6.85600018315017 3.35698735771862
6.87200018391013 3.11326250619955
6.88800018467009 3.24029706459564
6.90400018543005 3.13242697991566
6.92000018619001 3.40477936526856
6.93600018694997 3.15316680759469
6.95200018770993 3.20489745977947
6.96800018846989 3.61056590215051
6.98400018922985 3.42030015262844
7.0000001899898 3.11620154420455
7.01600019074976 2.97108948743589
7.03200019150972 3.72092862172038
7.04800019226968 3.72525782947673
7.06400019302964 3.6475338849746
7.0800001937896 3.22363244922319
7.09600019454956 3.03705040944025
7.11200019530952 3.18407464039594
7.12800019606948 3.72607941621274
7.14400019682944 3.8098256518269
7.1600001975894 3.45690883283593
7.17600019834936 3.43598044643888
7.19200019910931 3.44357157591046
7.20800019986927 3.27851249253808
7.22400020062923 3.02666929313914
7.24000020138919 2.54470133847305
7.25600020214915 3.08901247240165
7.27200020290911 3.31824231342148
7.28800020366907 3.01388679726738
7.30400020442903 3.01746351076382
7.32000020518899 2.81892020282146
7.33600020594895 2.86958344884847
7.35200020670891 3.18597507544389
7.36800020746887 3.4127312396724
7.38400020822883 3.05691924172446
7.40000020898878 2.55219315025547
7.41600020974874 2.44511692519485
7.4320002105087 2.71922558479826
7.44800021126866 2.8267600427987
7.46400021202862 2.98298628587888
7.48000021278858 3.28536876918649
7.49600021354854 3.16429875886699
7.5120002143085 2.73519582149672
7.52800021506846 2.54004105938266
7.54400021582842 2.79764656424435
7.56000021658838 2.49758085437787
7.57600021734834 2.00215938786851
7.5920002181083 2.20306791206809
7.60800021886825 2.35918702901922
7.62400021962821 2.54126266285739
7.64000022038817 2.48500137261142
7.65600022114813 2.46716068296692
7.67200022190809 2.66274129552091
7.68800022266805 2.47360906954371
7.70400022342801 2.42545789696779
7.72000022418797 2.42565545885738
7.73600022494793 2.44380494524652
7.75200022570789 2.28262623455079
7.76800022646785 2.29647861712042
7.78400022722781 2.52672512374448
7.80000022798777 2.47353549931017
7.81600022874772 2.19546596536528
7.83200022950768 2.44622532402578
7.84800023026764 2.54517643969713
7.8640002310276 2.30171386940461
7.88000023178756 1.8619953997721
7.89600023254752 1.76969673778186
7.91200023330748 2.72027118506544
7.92800023406744 2.74714187541573
7.9440002348274 2.36508030455938
7.96000023558736 2.5897849872509
7.97600023634732 2.41171035246847
7.99200023710728 2.47561227404568
8.00800023786724 2.55345495206238
8.0240002386272 2.1618292191149
8.04000023938715 1.90830759985606
8.05600024014711 2.04628109849285
8.07200024090707 2.10547667424015
8.08800024166703 2.01624319690888
8.10400024242699 1.61958191501176
8.12000024318695 1.75509007627724
8.13600024394691 2.03463154994349
8.15200024470687 2.20821247206335
8.16800024546683 1.85077925046287
8.18400024622679 1.86016230884569
8.20000024698675 1.89802639421413
8.21600024774671 2.17708439573017
8.23200024850667 2.06885895211891
8.24800024926662 1.9599801835918
8.26400025002658 1.83693310261465
8.28000025078654 1.86046406845581
8.2960002515465 2.38192670134294
8.31200025230646 2.09739177449083
8.32800025306642 1.85669901900101
8.34400025382638 1.66824814684371
8.36000025458634 1.60649794735147
8.3760002553463 1.85041023549068
8.39200025610626 1.95310020540422
8.40800025686622 2.49279396169071
8.42400025762618 2.45428158042138
8.44000025838614 2.11445718729132
8.45600025914609 2.25077237986424
8.47200025990605 2.47820560323219
8.48800026066601 1.95232891520198
8.50400026142597 2.10755739153428
8.52000026218593 2.25597754979358
8.53600026294589 2.17497740096016
8.55200026370585 2.47508964178675
8.56800026446581 2.62402747506902
8.58400026522577 2.39043343720992
8.60000026598573 2.55211116006532
8.61600026674569 2.28691350877621
8.63200026750565 2.54475584367361
8.6480002682656 2.99548102066184
8.66400026902556 2.78467776268356
8.68000026978552 3.19121711043253
8.69600027054548 3.48764149301074
8.71200027130544 3.78178629403474
8.7280002720654 4.15565928757534
8.74400027282536 4.67596726919069
8.76000027358532 5.62570593216157
8.77600027434528 6.73953353315308
8.79200027510524 7.79513687454252
8.8080002758652 9.68780877691891
8.82400027662516 10.9612007655375
8.84000027738512 10.4388655836249
8.85600027814507 8.65143094229222
8.87200027890503 6.7908132357984
8.88800027966499 4.51181783409983
8.90400028042495 2.95040777315351
8.92000028118491 2.31342644844768
8.93600028194487 1.86923752604157
8.95200028270483 1.84765234349493
8.96800028346479 1.75931528502529
8.98400028422475 1.48134377985472
9.00000028498471 1.41464739065954
9.01600028574467 1.6351051163146
9.03200028650463 1.3439752961954
9.04800028726459 1.43136500342
9.06400028802454 1.25838611131051
9.0800002887845 0.9570386794262
9.09600028954446 0.992514510400765
9.11200029030442 0.783886747342633
9.12800029106438 0.863309436026583
9.14400029182434 0.887617562725593
9.1600002925843 0.939506077642413
9.17600029334426 1.1016144749705
9.19200029410422 1.14461540863927
9.20800029486418 0.659433710242061
9.22400029562414 0.684974213226971
9.24000029638409 0.726830252069607
9.25600029714405 0.461638583113851
9.27200029790401 0.638309523656979
9.28800029866397 0.901599168264152
9.30400029942393 0.518083044861219
9.32000030018389 0.31331601764284
9.33600030094385 0.472712287728415
9.35200030170381 0.775550032523658
9.36800030246377 0.564232849523981
9.38400030322373 0.397803952715982
9.40000030398369 0.574347157808022
9.41600030474365 0.236496986860031
9.43200030550361 0.140158270865159
9.44800030626356 0.277665692069261
9.46400030702352 0.569826821482215
9.48000030778348 0.618227177317706
9.49600030854344 0.751970026315215
9.5120003093034 0.450052776127935
9.52800031006336 0.261618339408169
9.54400031082332 0.642416358706882
9.56000031158328 0.706980117709007
9.57600031234324 0.69634849982625
9.5920003131032 0.531103396408987
9.60800031386316 0.439869314208346
9.62400031462312 0.862707568919387
9.64000031538307 0.584568192590218
9.65600031614303 0.081834121825958
9.67200031690299 0.0417629850312782
9.68800031766295 0.384789771769432
9.70400031842291 0.225263179077404
9.72000031918287 0.380874357721989
9.73600031994283 0.484299665403151
9.75200032070279 0.0800795511651309
9.76800032146275 0.333398795971734
9.78400032222271 0.463703778974901
9.80000032298267 0.406325432170295
9.81600032374263 0.39738660397248
9.83200032450259 0.492964626019722
9.84800032526254 0.194182581921796
9.8640003260225 0.258650205251916
9.88000032678246 0.514604757589641
9.89600032754242 0.548478195500357
9.91200032830238 0.877648632105483
9.92800032906234 0.723021542536683
9.9440003298223 0.485882494599169
9.96000033058226 0.299931961045504
9.97600033134222 0.695848704147149
9.99200033210218 0.722259673374275
10.0080003328621 0.515977719522478
10.0240003336221 0.650567090179488
10.0400003343821 0.239613594257712
10.056000335142 0.600628420862819
10.072000335902 0.895108587713114
10.0880003366619 0.413964140177313
10.1040003374219 0.095919430271401
10.1200003381819 0.262087776888155
10.1360003389418 0.323232410415876
10.1520003397018 0.288335472456513
10.1680003404617 0.318801427679334
10.1840003412217 0.158097752199449
10.2000003419816 0.5219281559766
10.2160003427416 0.509238499831651
10.2320003435016 0.585585223911497
10.2480003442615 0.638963907404506
10.2640003450215 0.582466064889186
10.2800003457814 0.494275311647593
10.2960003465414 0.347936393054063
10.3120003473014 0.562396784594878
10.3280003480613 0.585144042920158
10.3440003488213 0.393555995858932
10.3600003495812 0.51970850230558
10.3760003503412 0.272009720876506
10.3920003511012 0.23540231923276
10.4080003518611 0.423638327527016
10.4240003526211 0.519110610287097
10.440000353381 0.636464642382959
10.456000354141 0.717600444150595
10.472000354901 0.410763418719458
10.4880003556609 0.202123750187321
10.5040003564209 0.855508803187712
10.5200003571808 0.699304782860848
10.5360003579408 0.374404252923044
10.5520003587008 0.329267339435591
10.5680003594607 0.479827796014705
10.5840003602207 0.934787679849014
10.6000003609806 0.816032529504396
10.6160003617406 0.635135989989118
10.6320003625005 0.343877209929891
10.6480003632605 0.458755378594784
10.6640003640205 0.229537695654143
10.6800003647804 0.116867590040005
10.6960003655404 0.154906651105676
10.7120003663003 0.601955597160677
10.7280003670603 0.812445525925723
10.7440003678203 0.477006974937041
10.7600003685802 0.574685763568583
10.7760003693402 0.682403725352811
10.7920003701001 0.456003898702805
10.8080003708601 0.313478034477733
10.8240003716201 0.265160917485044
10.84000037238 0.493721019675505
10.85600037314 0.639711982001401
10.8720003738999 0.544945990646269
10.8880003746599 0.453977488970748
10.9040003754199 0.535862372167768
10.9200003761798 0.58047673933544
10.9360003769398 1.01969083669993
10.9520003776997 0.719316969711022
10.9680003784597 0.145063063788252
10.9840003792196 0.299881601911418
11.0000003799796 0.591290419281012
11.0160003807396 0.65282350763977
11.0320003814995 0.943411471464616
11.0480003822595 0.825842522413053
11.0640003830194 0.576719002434285
11.0800003837794 0.615316756909817
11.0960003845394 0.821775750709733
11.1120003852993 1.01417456504734
11.1280003860593 0.744339426496024
11.1440003868192 0.624606010024495
11.1600003875792 0.468957451109286
11.1760003883392 0.562356510800845
11.1920003890991 0.633806618977552
11.2080003898591 0.814419223261108
11.224000390619 0.772779011922323
11.240000391379 1.20237849146138
11.256000392139 1.01452797737186
11.2720003928989 0.757450343715977
11.2880003936589 0.492302212280919
11.3040003944188 0.529292534861659
11.3200003951788 0.668162457191599
11.3360003959388 0.694226273763098
11.3520003966987 0.651323702949366
11.3680003974587 0.949855212606037
11.3840003982186 1.06851297116627
11.4000003989786 0.762586944041482
11.4160003997385 0.998178426340312
11.4320004004985 1.16597328163567
11.4480004012585 1.03268311913721
11.4640004020184 0.978404781088489
11.4800004027784 1.25788458034764
11.4960004035383 1.73252086240071
11.5120004042983 1.59182263827099
11.5280004050583 1.96131499884888
11.5440004058182 2.40069086912238
11.5600004065782 2.86533240867086
11.5760004073381 3.64754464486653
11.5920004080981 4.46558110963067
11.6080004088581 4.54160609242958
11.624000409618 3.8220297364101
11.640000410378 2.6588363337774
11.6560004111379 2.08517701402237
11.6720004118979 1.81051224244271
11.6880004126579 1.43448362936018
11.7040004134178 1.44607227680543
11.7200004141778 1.42062424078087
11.7360004149377 1.41451292765825
11.7520004156977 1.55478140879241
11.7680004164577 1.52825702846768
11.7840004172176 1.64161666997765
11.8000004179776 1.72884656173837
11.8160004187375 1.74465353525971
11.8320004194975 2.28521814677977
11.8480004202574 1.86936108330696
11.8640004210174 1.67538311632708
11.8800004217774 2.5319678933492
11.8960004225373 2.53487959765854
11.9120004232973 2.47714315381915
11.9280004240572 2.79422838367747
11.9440004248172 2.74896766756736
11.9600004255772 2.59460467074325
11.9760004263371 2.68821490021948
11.9920004270971 3.32763076519706
12.008000427857 3.53251394912702
12.024000428617 3.33066795850179
12.040000429377 3.83998564025115
12.0560004301369 3.81080712981486
12.0720004308969 4.04155266251047
12.0880004316568 4.32554791133198
12.1040004324168 4.63440648420386
12.1200004331768 5.27393439846197
12.1360004339367 5.62900679110662
12.1520004346967 5.94722448945176
12.1680004354566 6.65213469773102
12.1840004362166 7.34830943897297
12.2000004369766 8.33030275040765
12.2160004377365 9.70865813302104
12.2320004384965 11.3502999794905
12.2480004392564 12.9457452775328
12.2640004400164 15.1436849807756
12.2800004407763 18.4241640682017
12.2960004415363 21.5673871469473
12.3120004422963 25.2096889000064
12.3280004430562 27.5339431857415
12.3440004438162 25.7318539624496
12.3600004445761 21.9884292623709
12.3760004453361 17.3771497203192
12.3920004460961 13.348494222758
12.408000446856 10.8166429816512
12.424000447616 9.21631428444783
12.4400004483759 7.77654308244236
12.4560004491359 7.46297086670103
12.4720004498959 7.45474481984872
12.4880004506558 6.69132215151897
12.5040004514158 5.68961066163926
12.5200004521757 4.67442368321143
12.5360004529357 4.33905052352143
12.5520004536957 3.33891256889389
12.5680004544556 3.01556324937492
12.5840004552156 2.65876680695955
12.6000004559755 2.21818566630866
12.6160004567355 2.37382842714404
12.6320004574954 2.0165120116711
12.6480004582554 2.03030361129499
12.6640004590154 1.98036341607534
12.6800004597753 1.65797602174204
12.6960004605353 1.60821214179003
12.7120004612952 1.41393531088156
12.7280004620552 1.36057550301827
12.7440004628152 1.48960083016756
12.7600004635751 1.09420937481374
12.7760004643351 1.2019655838719
12.792000465095 1.13053869407603
12.808000465855 1.10869455528604
12.824000466615 1.44467795144705
12.8400004673749 1.32302414977011
12.8560004681349 0.860971150862643
12.8720004688948 0.816765237348097
12.8880004696548 0.711246732627073
12.9040004704148 1.13855283672942
12.9200004711747 1.03065231572931
12.9360004719347 1.04232979006918
12.9520004726946 1.36116369555529
12.9680004734546 0.939043358495935
12.9840004742146 0.916270413763582
13.0000004749745 0.604843425692961
13.0160004757345 0.544863480817703
13.0320004764944 0.796542371060922
13.0480004772544 0.810267244089742
13.0640004780143 0.643213541122597
13.0800004787743 0.771653820929203
13.0960004795343 0.713233362524488
13.1120004802942 0.653704618074445
13.1280004810542 0.727573142628965
13.1440004818141 0.743619136927312
13.1600004825741 0.802512812110736
13.1760004833341 0.54716454771581
13.192000484094 0.645361022159879
13.208000484854 0.731356423129996
13.2240004856139 0.707801954818156
13.2400004863739 0.666604103926595
13.2560004871339 0.614795820116615
13.2720004878938 0.501770572751385
13.2880004886538 0.845751175019672
13.3040004894137 0.591084428067202
13.3200004901737 0.409566074025927
13.3360004909337 0.488817317788683
13.3520004916936 0.669802022872604
13.3680004924536 0.816916365245302
13.3840004932135 0.852402184721275
13.4000004939735 0.758892415525834
13.4160004947335 0.40350107074671
13.4320004954934 0.424118778536499
13.4480004962534 0.490508355588308
13.4640004970133 0.448398699463459
13.4800004977733 0.558690000685768
13.4960004985332 0.597208576023392
13.5120004992932 0.468903537028867
13.5280005000532 0.161751325466486
13.5440005008131 0.443213618130947
13.5600005015731 0.538719251174651
13.576000502333 0.208401481444918
13.592000503093 0.236371432522464
13.608000503853 0.441907184627246
13.6240005046129 0.524084132365675
13.6400005053729 0.500335376394313
13.6560005061328 0.7283407783429
13.6720005068928 0.421993247586216
13.6880005076528 0.402723047232914
13.7040005084127 0.465421579960014
13.7200005091727 0.562501495143609
13.7360005099326 0.562536921614519
13.7520005106926 0.703558131554018
13.7680005114526 0.552490433544531
13.7840005122125 0.302285960696294
13.8000005129725 0.618303483234895
13.8160005137324 0.709153530082755
13.8320005144924 0.880145826707324
13.8480005152523 1.02191257630952
13.8640005160123 1.21073314160625
13.8800005167723 1.0221713734562
13.8960005175322 0.56008058389027
13.9120005182922 0.763009014137608
13.9280005190521 0.641078019307102
13.9440005198121 0.624287105803011
13.9600005205721 0.396416736960091
13.976000521332 0.34164607650833
13.992000522092 0.671567955469222
14.0080005228519 0.517342521837145
14.0240005236119 0.431486184181028
14.0400005243719 0.644131598090929
14.0560005251318 0.614895126740842
14.0720005258918 0.696965492851191
14.0880005266517 0.660998825707264
14.1040005274117 0.652555755910017
14.1200005281717 0.499155906610922
14.1360005289316 0.314101582408477
14.1520005296916 0.0486415483666818
14.1680005304515 0.201643645340727
14.1840005312115 0.312992941082281
14.2000005319715 0.40954365228747
14.2160005327314 0.633494912514823
14.2320005334914 0.652051583530751
14.2480005342513 0.439623012098933
14.2640005350113 0.280063603017135
14.2800005357712 0.453844225821149
14.2960005365312 0.677263686908036
14.3120005372912 0.454040740232337
14.3280005380511 0.455622300355118
14.3440005388111 0.387211587883042
14.360000539571 0.292893116405541
14.376000540331 0.692942257819991
14.392000541091 0.796374839077155
14.4080005418509 0.584190841526242
14.4240005426109 0.370254720972421
14.4400005433708 0.759805188171844
14.4560005441308 0.635041640175591
14.4720005448908 0.306554557812175
14.4880005456507 0.462306672700204
14.5040005464107 0.561842476705121
14.5200005471706 0.435362015187287
14.5360005479306 0.634034245830057
14.5520005486906 0.751935472176668
14.5680005494505 0.597675002600271
14.5840005502105 0.540865453837601
14.6000005509704 0.259003278831165
14.6160005517304 0.5781361713319
14.6320005524904 0.343229923614301
14.6480005532503 0.153313923150214
14.6640005540103 0.201390447187339
14.6800005547702 0.258040044996032
14.6960005555302 0.3669272425279
14.7120005562901 0.542900980226871
14.7280005570501 0.372955680033661
14.7440005578101 0.416450073256446
14.76000055857 0.501515794453568
14.77600055933 0.527645946316383
14.7920005600899 0.673456529750196
14.8080005608499 0.738707371046267
14.8240005616099 0.635974923665893
14.8400005623698 0.750045014911011
14.8560005631298 0.603353442165134
14.8720005638897 0.325254610179386
14.8880005646497 0.363638595043571
14.9040005654097 0.502951469263065
14.9200005661696 0.521413896593344
14.9360005669296 0.535455377784267
14.9520005676895 0.410762885157146
14.9680005684495 0.185573878699012
14.9840005692095 0.323401562815196
15.0000005699694 0.592676967296026
15.0160005707294 0.431580861870877
15.0320005714893 0.357551555134643
15.0480005722493 0.144742874332831
15.0640005730093 0.433106595473244
15.0800005737692 0.702685432326988
15.0960005745292 0.459584977397991
15.1120005752891 0.402892181670113
15.1280005760491 0.476016193224168
15.144000576809 0.195671549740226
15.160000577569 0.538650220453412
15.176000578329 0.537581712082909
15.1920005790889 0.296592974868815
15.2080005798489 0.405682966832674
15.2240005806088 0.310951203708608
15.2400005813688 0.350240299928718
15.2560005821288 0.763591984789886
15.2720005828887 0.896600948041127
15.2880005836487 0.645979866106003
15.3040005844086 0.488208488495895
15.3200005851686 0.410978500912733
15.3360005859286 0.523775797484054
15.3520005866885 0.577432456267462
15.3680005874485 0.994525873143887
15.3840005882084 0.949163440041975
15.4000005889684 0.613214685801574
15.4160005897284 0.602848236218011
15.4320005904883 0.363985334856265
15.4480005912483 0.312467871755254
15.4640005920082 0.645395798268244
15.4800005927682 0.497615482709262
15.4960005935281 0.689429130614024
15.5120005942881 0.545784160956474
15.5280005950481 0.115703013829241
15.544000595808 0.32537285081717
15.560000596568 0.606704931327643
15.5760005973279 0.380535255045107
15.5920005980879 0.610879580812238
15.6080005988479 0.527155645578805
15.6240005996078 0.66072367980754
15.6400006003678 0.629536217435673
15.6560006011277 0.507553250794557
15.6720006018877 0.496377549043514
15.6880006026477 0.55805463015198
15.7040006034076 0.643776876584455
15.7200006041676 0.414178270769025
15.7360006049275 0.569636418562392
15.7520006056875 0.515678734143983
15.7680006064475 0.357248418440601
15.7840006072074 0.379268334171562
15.8000006079674 0.436906207313823
15.8160006087273 0.547617238320023
15.8320006094873 0.590619847984207
15.8480006102473 0.642405671792192
15.8640006110072 0.214065663966949
15.8800006117672 0.0677198233698952
15.8960006125271 0.374672097143143
15.9120006132871 0.500806972324996
15.928000614047 0.347743616778381
15.944000614807 0.393803279693848
15.960000615567 0.319072377606152
15.9760006163269 0.283562934470838
15.9920006170869 0.315779849743254
16.0080006178468 0.281484716968028
16.0240006186068 0.34264436257517
16.0400006193668 0.382086333843853
16.0560006201267 0.517801397250938
16.0720006208867 0.373554974915857
16.0880006216466 0.290198034883658
16.1040006224066 0.464636655515513
16.1200006231666 0.513917995910631
16.1360006239265 0.390219743835536
16.1520006246865 0.0948024665287717
16.1680006254464 0.428866386333298
16.1840006262064 0.522938062306165
16.2000006269664 0.4514476650722
16.2160006277263 0.386268827812189
16.2320006284863 0.549573408569272
16.2480006292462 0.315941694013383
16.2640006300062 0
16.2800006307661 0.232391405981669
16.2960006315261 0.347213998997963
16.3120006322861 0.576119997932718
16.328000633046 0.557840711557416
16.344000633806 0.595110040172449
16.3600006345659 0.354258646690209
16.3760006353259 0.357655126528894
16.3920006360859 0.562453944646287
16.4080006368458 0.0874782194589692
16.4240006376058 0.321959629533846
16.4400006383657 0.501377368398308
16.4560006391257 0.300671771305248
16.4720006398857 0.422073587325245
16.4880006406456 0.413629604891081
16.5040006414056 0.527349000616304
16.5200006421655 0.547212344293384
16.5360006429255 0.402445751722765
16.5520006436855 0.274242590981983
16.5680006444454 0.282400710415078
16.5840006452054 0.376554373117338
16.6000006459653 0.25820340002215
16.6160006467253 0.279327280670286
16.6320006474853 0.265055921795702
16.6480006482452 0.24173154013135
16.6640006490052 0.493122026770918
16.6800006497651 0.537809439228453
16.6960006505251 0.333138970527397
16.712000651285 0.360070049055834
16.728000652045 0.701741433108068
16.744000652805 0.696320869887709
16.7600006535649 0.326053381014697
16.7760006543249 0.609293735960564
16.7920006550848 0.759104283839116
16.8080006558448 0.84969969517511
16.8240006566048 0.540512479661167
16.8400006573647 0.34140135700986
16.8560006581247 0.475728991172596
16.8720006588846 0.285727521686125
16.8880006596446 0.723025306182638
16.9040006604046 0.521240556865521
16.9200006611645 0.312474467192483
16.9360006619245 0.274114046907332
16.9520006626844 0.252366456429622
16.9680006634444 0.485129429598037
16.9840006642044 0.513442488649163
17.0000006649643 0.464572311208761
17.0160006657243 0.301905860356941
17.0320006664842 0.242458965991331
17.0480006672442 0.122824388946118
17.0640006680042 0.476259901461715
17.0800006687641 0.544537265190679
17.0960006695241 0.378356556157169
17.112000670284 0.579384557298903
17.128000671044 0.822346084881713
17.1440006718039 0.522172566957911
17.1600006725639 0.220087734889494
17.1760006733239 0.574429248557763
17.1920006740838 0.77452236559866
17.2080006748438 0.553370997494518
17.2240006756037 0.612976635621839
17.2400006763637 0.533751767560031
17.2560006771237 0.351068359468084
17.2720006778836 0.32970429618848
17.2880006786436 0.633355199477696
17.3040006794035 0.454344073462804
17.3200006801635 0.253734141200948
17.3360006809235 0.476512861631779
17.3520006816834 0.420793959137514
17.3680006824434 0.275033439200064
17.3840006832033 0.335488725675282
17.4000006839633 0.628284638209372
17.4160006847233 0.626299957583636
17.4320006854832 0.463026669810694
17.4480006862432 0.55799145125264
17.4640006870031 0.552999043439812
17.4800006877631 0.500049544161653
17.4960006885231 0.601608048214095
17.512000689283 0.478552823487854
17.528000690043 0.585812549661732
17.5440006908029 0.877363832324803
17.5600006915629 0.930435790630106
17.5760006923228 1.04205471360912
17.5920006930828 1.26100937646996
17.6080006938428 1.15437522961671
17.6240006946027 0.930640410165103
17.6400006953627 1.26163527494779
17.6560006961226 1.29347278745413
17.6720006968826 1.51251776067082
17.6880006976426 2.49835093090204
17.7040006984025 2.61833138074832
17.7200006991625 2.60114330148928
17.7360006999224 2.9207440356504
17.7520007006824 2.95548248846028
17.7680007014424 2.41117107819873
17.7840007022023 2.0865441953605
17.8000007029623 1.85676356016078
17.8160007037222 1.64041914124084
17.8320007044822 1.19671241081928
17.8480007052422 1.09654333966922
17.8640007060021 0.92165623101792
17.8800007067621 0.785460759709167
17.896000707522 0.796678224260108
17.912000708282 0.454979632215204
17.9280007090419 0.489461184838967
17.9440007098019 0.640445885627006
17.9600007105619 0.514355418962904
17.9760007113218 0.379448854632943
17.9920007120818 0.213144048325238
18.0080007128417 0.464827299697118
18.0240007136017 0.854897291146011
18.0400007143617 0.350757261893764
18.0560007151216 0.431288310811709
18.0720007158816 0.598511437506149
18.0880007166415 0.440694057965767
18.1040007174015 0.275300526536189
18.1200007181615 0.296164907610873
18.1360007189214 0.481929096665814
18.1520007196814 0.54970065738749
18.1680007204413 0.701409352152321
18.1840007212013 0.559079013033413
18.2000007219613 0.479231419531748
18.2160007227212 0.626077855884363
18.2320007234812 0.713811544401623
18.2480007242411 0.435009322213713
18.2640007250011 0.472640976379625
18.2800007257611 0.477535813942903
18.296000726521 0.348422925708979
18.312000727281 0.644892093888281
18.3280007280409 0.637971015236149
18.3440007288009 0.468146034878797
18.3600007295608 0.270856696332366
18.3760007303208 0.432707312887233
18.3920007310808 0.558085083556216
18.4080007318407 0.481562227102787
18.4240007326007 0.568004438881886
18.4400007333606 0.305123152627112
18.4560007341206 0.414351089329623
18.4720007348806 0.43794851359425
18.4880007356405 0.186710143279197
18.5040007364005 0.267519995250807
18.5200007371604 0.664326093691953
18.5360007379204 0.753356605832527
18.5520007386804 0.640785973402735
18.5680007394403 0.604405416366602
18.5840007402003 0.695120125698282
18.6000007409602 0.857793270837211
18.6160007417202 0.870070611026342
18.6320007424802 0.640336018338819
18.6480007432401 0.671541764317914
18.6640007440001 0.76430815193664
18.68000074476 0.935589782698374
18.69600074552 0.779750985292631
18.71200074628 0.741368781821283
18.7280007470399 0.90705886688006
18.7440007477999 1.04178242785535
18.7600007485598 0.587633089067112
18.7760007493198 0.689325104691898
18.7920007500797 0.881162185689349
18.8080007508397 0.572359136436631
18.8240007515997 0.817872366917663
18.8400007523596 0.804585680486469
18.8560007531196 0.698895526451493
18.8720007538795 0.595039551881738
18.8880007546395 0.638098014758357
18.9040007553995 0.55036042426723
18.9200007561594 0.167857619185063
18.9360007569194 0.394358828752076
18.9520007576793 0.533200185146071
18.9680007584393 0.483780763527993
18.9840007591993 0.609512094375225
19.0000007599592 0.433764727421502
19.0160007607192 0.212506744410025
19.0320007614791 0.297981219520686
19.0480007622391 0.451584604908883
19.0640007629991 0.580487834496012
19.080000763759 0.482071312181784
19.096000764519 0.345849277117229
19.1120007652789 0.292384783837255
19.1280007660389 0.31969457227152
19.1440007667989 0.101987088764469
19.1600007675588 0.298209418331421
19.1760007683188 0.417488851849286
19.1920007690787 0.350305661993497
19.2080007698387 0.344148303220389
19.2240007705986 0.717442851439257
19.2400007713586 0.468786883720159
19.2560007721186 0.302183560333111
19.2720007728785 0.56033271627796
19.2880007736385 0.741211729733064
19.3040007743984 0.567040048925941
19.3200007751584 0.51330901375018
19.3360007759184 0.464163573032768
19.3520007766783 0.547642721081392
19.3680007774383 0.712417696955981
19.3840007781982 1.03657199177657
19.4000007789582 1.02040312674971
19.4160007797182 0.946613108339291
19.4320007804781 0.780932594391126
19.4480007812381 0.717140143182366
19.464000781998 0.840669725251001
19.480000782758 1.00702829958036
19.496000783518 1.02552988168364
19.5120007842779 1.24836955430956
19.5280007850379 1.17954666075089
19.5440007857978 1.47099518183294
19.5600007865578 1.61675459693714
19.5760007873177 1.75764666852945
19.5920007880777 1.84326242365393
19.6080007888377 2.12237443993551
19.6240007895976 2.25365131116252
19.6400007903576 2.72508688447161
19.6560007911175 3.09247421719067
19.6720007918775 3.19650483895344
19.6880007926375 3.55139819112098
19.7040007933974 3.84813183201652
19.7200007941574 4.0182817320928
19.7360007949173 4.37883042090444
19.7520007956773 5.01954485350256
19.7680007964373 4.99632465262998
19.7840007971972 5.34391442689003
19.8000007979572 5.77752159318359
19.8160007987171 5.85161588011464
19.8320007994771 5.7297320604011
19.8480008002371 5.85291605629086
19.864000800997 5.90821981877183
19.880000801757 5.63640965655198
19.8960008025169 5.64469106544974
19.9120008032769 5.60437495534388
19.9280008040369 5.40163467133621
19.9440008047968 5.18390093222548
19.9600008055568 4.5884414999811
19.9760008063167 4.32567569371885
19.9920008070767 4.5873826990594
20.0080008078366 4.27416735136578
20.0240008085966 4.15975694831751
20.0400008093566 4.23304395318294
20.0560008101165 3.87548949500244
20.0720008108765 3.76567238445367
20.0880008116364 4.11433000268108
20.1040008123964 3.99928657068965
20.1200008131564 3.78258962125825
20.1360008139163 3.81018146312566
20.1520008146763 3.9063622741033
20.1680008154362 3.82868850144228
20.1840008161962 3.67954005622623
20.2000008169562 3.54731953037183
20.2160008177161 3.6274263755446
20.2320008184761 3.35964222355481
20.248000819236 3.57326517261285
20.264000819996 3.46077317972111
20.280000820756 3.36554007735902
20.2960008215159 3.4296084023375
20.3120008222759 3.53908357498833
20.3280008230358 3.81650822781962
20.3440008237958 3.82381720151663
20.3600008245558 3.1689479184041
20.3760008253157 3.23119884767822
20.3920008260757 3.4010721818535
20.4080008268356 3.35174648751566
20.4240008275956 3.31569429102359
20.4400008283555 3.17466422963779
20.4560008291155 3.28910981831388
20.4720008298755 3.34310474479994
20.4880008306354 2.78903854487637
20.5040008313954 2.93759211182844
20.5200008321553 3.36437069845284
20.5360008329153 3.2392547495258
20.5520008336753 3.18392092643355
20.5680008344352 3.23580129890602
20.5840008351952 3.24565292303893
20.6000008359551 3.18707681684804
20.6160008367151 3.25073109894815
20.6320008374751 3.46859454303799
20.648000838235 3.82092965767682
20.664000838995 3.72430526549626
20.6800008397549 4.06292188241144
20.6960008405149 4.78737730210278
20.7120008412749 5.39053461684851
20.7280008420348 6.77657812030331
20.7440008427948 8.38337474628898
20.7600008435547 10.775063676313
20.7760008443147 14.7905524692349
20.7920008450747 20.038569816067
20.8080008458346 26.151535857653
20.8240008465946 28.8151193028028
20.8400008473545 25.4539423114996
20.8560008481145 20.4152833997635
20.8720008488744 17.5905337025617
20.8880008496344 13.8546531027923
20.9040008503944 8.91400324282772
20.9200008511543 6.20565025501288
20.9360008519143 5.0352056481563
20.9520008526742 4.08165841156136
20.9680008534342 3.26760678922476
20.9840008541942 3.28669766106063
21.0000008549541 3.2561491913719
21.0160008557141 3.0177633205229
21.032000856474 3.06589274460776
21.048000857234 2.9497942111341
21.064000857994 2.6231213442537
21.0800008587539 2.65877858152946
21.0960008595139 2.6608042903267
21.1120008602738 2.30208823623648
21.1280008610338 2.00750832201885
21.1440008617938 2.2913264299692
21.1600008625537 2.62114902732809
21.1760008633137 2.36307287241787
21.1920008640736 2.35902528166443
21.2080008648336 2.19673260598421
21.2240008655935 1.93060252025826
21.2400008663535 2.21832438324505
21.2560008671135 2.25494581686509
21.2720008678734 2.47185329841313
21.2880008686334 2.4535303783462
21.3040008693933 2.15340504310465
21.3200008701533 1.87662806054881
21.3360008709133 2.11580530681948
21.3520008716732 2.28010256586123
21.3680008724332 2.2198846457188
21.3840008731931 2.33907573242048
21.4000008739531 2.10539068858111
21.4160008747131 2.18121025572705
21.432000875473 2.24578769588379
21.448000876233 2.45636957606492
21.4640008769929 2.40179088933943
21.4800008777529 2.27506002596841
21.4960008785129 2.27942644505262
21.5120008792728 1.96979134994647
21.5280008800328 2.24336816521573
21.5440008807927 2.25777194333395
21.5600008815527 1.8265448177582
21.5760008823127 1.86073625976868
21.5920008830726 2.15994852497557
21.6080008838326 2.18470716210256
21.6240008845925 2.00995120288257
21.6400008853525 1.74754955920402
21.6560008861124 1.9698597682432
21.6720008868724 2.12864459995655
21.6880008876324 1.80635462506824
21.7040008883923 1.74142089303993
21.7200008891523 1.51992209835625
21.7360008899122 1.59212179322991
21.7520008906722 1.78596953376168
21.7680008914322 1.70652164553711
21.7840008921921 1.47253023335254
21.8000008929521 1.75027746345848
21.816000893712 1.76329062573558
21.832000894472 1.86031011644742
21.848000895232 1.76881833278877
21.8640008959919 1.76193737409601
21.8800008967519 1.76525765123481
21.8960008975118 1.7901361544139
21.9120008982718 2.04209918159011
21.9280008990318 1.96866938501174
21.9440008997917 1.54851298983994
21.9600009005517 1.85613206415212
21.9760009013116 2.30518249276641
21.9920009020716 2.0988439433742
22.0080009028316 1.93231343867544
22.0240009035915 1.81071592568012
22.0400009043515 1.6615213267034
22.0560009051114 1.56658442049139
22.0720009058714 1.505435835558
22.0880009066313 1.4399706706977
22.1040009073913 1.21265815523091
22.1200009081513 1.25896562810027
22.1360009089112 1.23726127570626
22.1520009096712 1.09144385412707
22.1680009104311 1.26184297540558
22.1840009111911 1.1051693943079
22.2000009119511 0.857620120040529
22.216000912711 1.24230427178327
22.232000913471 1.87810589491928
22.2480009142309 1.71801506483973
22.2640009149909 1.19581170787663
22.2800009157509 1.21753829427978
22.2960009165108 1.36873853475223
22.3120009172708 1.19081340120906
22.3280009180307 1.28770185136378
22.3440009187907 1.25035128465968
22.3600009195507 1.27179682704085
22.3760009203106 1.4762751592819
22.3920009210706 1.27542240271301
22.4080009218305 1.14037201488175
22.4240009225905 0.895626733139653
22.4400009233504 1.02028643706605
22.4560009241104 1.30998399059836
22.4720009248704 0.992574331624992
22.4880009256303 1.00754975201531
22.5040009263903 1.08308341753522
22.5200009271502 1.06685869157369
22.5360009279102 1.2002346710056
22.5520009286702 1.47023675597445
22.5680009294301 1.3076423578823
22.5840009301901 1.05502683462162
22.60000093095 1.17379291441526
22.61600093171 0.856713925535677
22.63200093247 0.789191089637078
22.6480009332299 0.909089496314309
22.6640009339899 1.08754228236847
22.6800009347498 0.994511082230845
22.6960009355098 1.08103253051514
22.7120009362698 0.909867432675785
22.7280009370297 1.01806053221417
22.7440009377897 0.979167022896783
22.7600009385496 0.771053353546289
22.7760009393096 0.841656343608154
22.7920009400696 0.937933025657501
22.8080009408295 1.26113750298327
22.8240009415895 1.10554437026348
22.8400009423494 0.738276014683279
22.8560009431094 0.777670860206608
22.8720009438693 1.21704637735303
22.8880009446293 1.33244459670427
22.9040009453893 1.09146322165989
22.9200009461492 1.19736380823794
22.9360009469092 1.10775557831357
22.9520009476691 0.975117625324287
22.9680009484291 1.38762905755098
22.9840009491891 1.42195180628565
23.000000949949 0.923931244863971
23.016000950709 0.792708173845003
23.0320009514689 0.883982852173747
23.0480009522289 0.983015806770343
23.0640009529889 1.07816050423532
23.0800009537488 1.08029960867675
23.0960009545088 0.966146375242296
23.1120009552687 0.810270627629969
23.1280009560287 0.754594131925364
23.1440009567887 0.914497664844653
23.1600009575486 0.702513101369905
23.1760009583086 0.649317335301945
23.1920009590685 0.771465285316817
23.2080009598285 0.977382340965502
23.2240009605885 1.11419264592467
23.2400009613484 0.854067733006213
23.2560009621084 0.903046158199262
23.2720009628683 0.788293710707122
23.2880009636283 0.953996110459956
23.3040009643882 1.33155679999261
23.3200009651482 1.15623669356208
23.3360009659082 1.26263709648872
23.3520009666681 1.52298241052155
23.3680009674281 1.4916916570256
23.384000968188 1.04628720486771
23.400000968948 0.770058125880334
23.416000969708 0.910972743605117
23.4320009704679 0.823509186672188
23.4480009712279 0.840306736214153
23.4640009719878 0.842662560755407
23.4800009727478 0.774624213895242
23.4960009735078 1.06702416047153
23.5120009742677 1.22049381738631
23.5280009750277 1.04845797006128
23.5440009757876 0.915545311236389
23.5600009765476 0.883317589799335
23.5760009773076 0.864398721851001
23.5920009780675 1.07711889997201
23.6080009788275 1.35259891971415
23.6240009795874 1.09146959329411
23.6400009803474 1.02525010920452
23.6560009811074 1.03436304005813
23.6720009818673 1.00763660877277
23.6880009826273 1.18089952265771
23.7040009833872 1.02564501849376
23.7200009841472 0.949193606283051
23.7360009849071 0.950248661970841
23.7520009856671 0.978784997121786
23.7680009864271 0.996862363820888
23.784000987187 1.00916819690021
23.800000987947 0.886282249852902
23.8160009887069 1.24311233840202
23.8320009894669 1.15438384276483
23.8480009902269 0.875859026890618
23.8640009909868 1.08789375920301
23.8800009917468 0.978246832656104
23.8960009925067 1.10492185352399
23.9120009932667 0.871854433629399
23.9280009940267 0.947135522691431
23.9440009947866 1.17701502089144
23.9600009955466 1.35282654848839
23.9760009963065 1.39316599603258
23.9920009970665 1.24160231551352
24.0080009978265 1.03581844339369
24.0240009985864 1.19611269542939
24.0400009993464 0.873981932862255
24.0560010001063 0.788362286484627
24.0720010008663 0.991475597724934
24.0880010016262 0.973312886922605
24.1040010023862 1.08769539037004
24.1200010031462 1.52801054367989
24.1360010039061 1.6081595063373
24.1520010046661 1.45994361813028
24.168001005426 1.71508455539118
24.184001006186 1.36898481811043
24.200001006946 1.17709420735187
24.2160010077059 1.55854878165179
24.2320010084659 1.52333158087643
24.2480010092258 1.32909412415396
24.2640010099858 1.21676774768993
24.2800010107458 1.25950266247295
24.2960010115057 1.00301725440477
24.3120010122657 1.32597851391331
24.3280010130256 1.37323953581975
24.3440010137856 0.818680014867722
24.3600010145456 1.13273741404023
24.3760010153055 1.40903891535827
24.3920010160655 1.28174250778312
24.4080010168254 1.49756078810353
24.4240010175854 1.2694556274111
24.4400010183454 1.35306289004109
24.4560010191053 1.61607509970962
24.4720010198653 1.76352860874664
24.4880010206252 1.87961326414143
24.5040010213852 1.89509143040903
24.5200010221451 1.66865959263025
24.5360010229051 1.83485178998179
24.5520010236651 2.2051479896768
24.568001024425 2.01375330237313
24.584001025185 2.30764698327244
24.6000010259449 2.61855533436505
24.6160010267049 2.67997773269641
24.6320010274649 2.6749934518908
24.6480010282248 2.73294434309376
24.6640010289848 3.29855050901664
24.6800010297447 3.80860658955143
24.6960010305047 3.98531825582295
24.7120010312647 4.45025418277674
24.7280010320246 4.90810880993717
24.7440010327846 5.49625386699272
24.7600010335445 6.3936074043744
24.7760010343045 8.10956418302262
24.7920010350645 10.0903386460918
24.8080010358244 11.8826557214038
24.8240010365844 13.1075817165977
24.8400010373443 13.6356080326708
24.8560010381043 13.2959177095789
24.8720010388643 12.255280632617
24.8880010396242 11.0137630230272
24.9040010403842 10.151687672031
24.9200010411441 8.66732361774073
24.9360010419041 7.51526189884176
24.952001042664 6.71544774782168
24.968001043424 5.73034633328245
24.984001044184 5.41059831094721
25.0000010449439 5.04572514163061
25.0160010457039 4.74777317354806
25.0320010464638 4.22762333301388
25.0480010472238 3.78846176207088
25.0640010479838 3.8477528742854
25.0800010487437 4.07532299983778
25.0960010495037 4.19760938680775
25.1120010502636 3.83767561101134
25.1280010510236 3.63784844269644
25.1440010517836 3.46710827291822
25.1600010525435 3.25129008634653
25.1760010533035 3.33258645552477
25.1920010540634 3.40727747633747
25.2080010548234 3.44191298621185
25.2240010555834 3.47284234461508
25.2400010563433 3.446654064273
25.2560010571033 3.85916125991916
25.2720010578632 3.90713840645628
25.2880010586232 3.40967979714087
25.3040010593832 3.22638217225859
25.3200010601431 3.39487545989682
25.3360010609031 3.26306792841835
25.352001061663 2.88900546492068
25.368001062423 2.39397291729316
25.3840010631829 2.17453730254069
25.4000010639429 2.31319818911138
25.4160010647029 2.19533172114632
25.4320010654628 1.91604557043914
25.4480010662228 2.17512463907256
25.4640010669827 2.31877310703942
25.4800010677427 2.28177048296382
25.4960010685027 1.86004766169137
25.5120010692626 1.78747165408951
25.5280010700226 1.64809865315219
25.5440010707825 1.55717790966462
25.5600010715425 1.5515616290654
25.5760010723025 1.70164595698067
25.5920010730624 1.53818612756091
25.6080010738224 1.49364302002077
25.6240010745823 1.48518344417228
25.6400010753423 1.35563695171535
25.6560010761023 1.55093960944317
25.6720010768622 1.63953256456826
25.6880010776222 1.58090049443893
25.7040010783821 1.59614323194977
25.7200010791421 1.64105231641665
25.736001079902 1.79195690802312
25.752001080662 1.71171882667295
25.768001081422 1.79303225738832
25.7840010821819 1.32006396756142
25.8000010829419 1.43375168113224
25.8160010837018 2.03519676988246
25.8320010844618 1.95609569036882
25.8480010852218 1.77354250902525
25.8640010859817 1.70459531172991
25.8800010867417 1.80208861050388
25.8960010875016 1.81183102236313
25.9120010882616 1.70680632061858
25.9280010890216 1.63358304174349
25.9440010897815 1.36388321944718
25.9600010905415 1.73262194748322
25.9760010913014 1.91463394816024
25.9920010920614 1.67472580353727
26.0080010928214 1.76423141765604
26.0240010935813 1.94619629176101
26.0400010943413 1.77968792027839
26.0560010951012 1.80576677389732
26.0720010958612 1.75787040164916
26.0880010966212 1.75872213866666
26.1040010973811 1.62250264481985
26.1200010981411 1.70387893860313
26.136001098901 1.90135747603759
26.152001099661 1.91812563713481
26.1680011004209 1.95038195147829
26.1840011011809 1.97336462913178
26.2000011019409 2.12200196062405
26.2160011027008 2.55307052470794
26.2320011034608 2.48259403154071
26.2480011042207 2.73167238542199
26.2640011049807 2.92415691004821
26.2800011057407 2.91981874032948
26.2960011065006 3.35517214340748
26.3120011072606 3.38407756771164
26.3280011080205 3.79945822435238
26.3440011087805 4.0650955984631
26.3600011095405 4.43229050799939
26.3760011103004 4.94823932300676
26.3920011110604 5.68099817139301
26.4080011118203 5.71959475964396
26.4240011125803 6.28964029549178
26.4400011133403 7.64219006055852
26.4560011141002 8.75371044809892
26.4720011148602 10.8056559457213
26.4880011156201 13.9773327883354
26.5040011163801 18.3851383014156
26.5200011171401 24.8566962653899
26.5360011179 34.8369016513567
26.55200111866 50.6895434889073
26.5680011194199 74.0456239966502
26.5840011201799 99.2901827689338
26.6000011209398 111.673377033894
26.6160011216998 98.7093395720936
26.6320011224598 76.1542484742967
26.6480011232197 66.7215984193822
26.6640011239797 65.4908788963707
26.6800011247396 55.0206115735473
26.6960011254996 36.2827853458765
26.7120011262596 22.8979367956007
26.7280011270195 16.8832630914417
26.7440011277795 13.7127286640902
26.7600011285394 12.1645546334313
26.7760011292994 10.8838795812641
26.7920011300594 9.43289398194043
26.8080011308193 7.97376617193428
26.8240011315793 7.10650458168902
26.8400011323392 6.64997210295081
26.8560011330992 5.83140101517236
26.8720011338592 4.73301858033682
26.8880011346191 3.98136159687509
26.9040011353791 3.72725412118304
26.920001136139 3.5964842218063
26.936001136899 3.04691438455393
26.952001137659 2.46278196927353
26.9680011384189 2.63303458440993
26.9840011391789 2.59528904833271
27.0000011399388 2.35488285915153
27.0160011406988 2.10326229128208
27.0320011414587 1.86489010592484
27.0480011422187 1.79843613603996
27.0640011429787 1.51285069143976
27.0800011437386 1.5523032282319
27.0960011444986 1.71932104637032
27.1120011452585 1.71902589275277
27.1280011460185 1.61049249543408
27.1440011467785 1.56599092265741
27.1600011475384 1.53167060428504
27.1760011482984 1.19844203362107
27.1920011490583 1.45870411498205
27.2080011498183 1.53000265741266
27.2240011505783 1.2815941010195
27.2400011513382 1.24920370720148
27.2560011520982 1.18255189126636
27.2720011528581 1.2666669242632
27.2880011536181 1.55851078252321
27.3040011543781 1.4067556094569
27.320001155138 1.52516460183821
27.336001155898 1.9960273333477
27.3520011566579 1.84495064136021
27.3680011574179 1.99533199333887
27.3840011581778 2.06218235147855
27.4000011589378 1.79198664689502
27.4160011596978 1.53417518251909
27.4320011604577 1.68853146226219
27.4480011612177 1.75351746625115
27.4640011619776 1.51324593172892
27.4800011627376 1.39938740802843
27.4960011634976 1.46433922230703
27.5120011642575 1.58829058193085
27.5280011650175 1.39504831231554
27.5440011657774 1.43462763055202
27.5600011665374 1.40084848577632
27.5760011672974 1.49490132517263
27.5920011680573 1.55444492376159
27.6080011688173 1.30662081630575
27.6240011695772 1.48351742015331
27.6400011703372 1.7437067468576
27.6560011710972 1.48735747163581
27.6720011718571 1.81621301755755
27.6880011726171 2.22331710840071
27.704001173377 2.20187312628014
27.720001174137 1.96553761497355
27.7360011748969 1.94225636173863
27.7520011756569 2.13877504318423
27.7680011764169 1.92700206683027
27.7840011771768 2.27744471675144
27.8000011779368 2.34674360695206
27.8160011786967 1.99914568941574
27.8320011794567 2.38659997687083
27.8480011802167 2.81293342672181
27.8640011809766 3.26198579508965
27.8800011817366 3.64708854713994
27.8960011824965 4.28099345784335
27.9120011832565 4.24783377626744
27.9280011840165 3.269092560151
27.9440011847764 3.08193374662223
27.9600011855364 3.71753156710113
27.9760011862963 3.94133256216518
27.9920011870563 2.96771686907878
28.0080011878163 1.72191486999127
28.0240011885762 1.50546626993149
28.0400011893362 1.77711071459323
28.0560011900961 1.89672107656183
28.0720011908561 1.50588908883204
28.0880011916161 1.4339697529849
28.104001192376 1.33820439356244
28.120001193136 1.12167525710403
28.1360011938959 1.16658187253978
28.1520011946559 0.949352571847762
28.1680011954158 1.02644581533602
28.1840011961758 0.920062147820845
28.2000011969358 0.62273541064411
28.2160011976957 0.788235873867338
28.2320011984557 0.918273797055327
28.2480011992156 0.687017538861348
28.2640011999756 0.926677972382739
28.2800012007356 0.916591438337205
28.2960012014955 0.892527645730891
28.3120012022555 0.545543737369034
28.3280012030154 0.782705021787644
28.3440012037754 1.1669957425356
28.3600012045354 1.04516927010376
28.3760012052953 0.813428302487324
28.3920012060553 0.762531621421546
28.4080012068152 0.718140776848396
28.4240012075752 0.557494286860584
28.4400012083352 0.68475751469099
28.4560012090951 0.799416828882198
28.4720012098551 0.655913702035237
28.488001210615 0.683885063782569
28.504001211375 0.581136550085451
28.520001212135 0.590807461587542
28.5360012128949 0.55776691601568
28.5520012136549 0.850997819308438
28.5680012144148 0.77999515413017
28.5840012151748 0.666776560075367
28.6000012159347 0.47082624731414
28.6160012166947 0.429456826024454
28.6320012174547 0.666537758312923
28.6480012182146 0.756249591105029
28.6640012189746 0.620511511012858
28.6800012197345 0.594479295199506
28.6960012204945 0.432340822643205
28.7120012212545 0.415013866310652
28.7280012220144 0.408600335748707
28.7440012227744 0.464868340838283
28.7600012235343 0.43577755369461
28.7760012242943 0.36608037302501
28.7920012250543 0.179315923947814
28.8080012258142 0.567654820029242
28.8240012265742 0.761377846094176
28.8400012273341 0.512116694520344
28.8560012280941 0.491325345350703
28.8720012288541 0.348562211826497
28.888001229614 0.443168614509046
28.904001230374 0.754562216350275
28.9200012311339 0.721022016751976
28.9360012318939 0.783155775388168
28.9520012326538 0.523168905356332
28.9680012334138 0.57056292318273
28.9840012341738 0.875323841321886
29.0000012349337 0.624679679783296
29.0160012356937 0.800852447763282
29.0320012364536 0.839781467000703
29.0480012372136 0.647743256704635
29.0640012379736 0.821654905387398
29.0800012387335 0.968931972473134
29.0960012394935 0.909632298288337
29.1120012402534 0.851485007197063
29.1280012410134 0.689588161459283
29.1440012417734 0.772511254680365
29.1600012425333 0.680503751230453
29.1760012432933 0.849807570430893
29.1920012440532 0.624782821355266
29.2080012448132 0.560437664445413
29.2240012455732 0.580921759821433
29.2400012463331 0.440628382609423
29.2560012470931 0.567787716790857
29.272001247853 0.523643223681908
29.288001248613 0.50183608816884
29.304001249373 0.439048507375329
29.3200012501329 0.639118967679152
29.3360012508929 0.756578903560537
29.3520012516528 0.606251432749931
29.3680012524128 0.401539156909073
29.3840012531727 0.52293113656319
29.4000012539327 0.539665932737772
29.4160012546927 0.426211904027921
29.4320012554526 0.323896557889805
29.4480012562126 0.519183863846314
29.4640012569725 0.81949047598456
29.4800012577325 0.751515757987653
29.4960012584925 0.401880414560265
29.5120012592524 0.371100387984533
29.5280012600124 0.668482565631598
29.5440012607723 0.758688933951875
29.5600012615323 0.740835371874912
29.5760012622923 0.826612662867485
29.5920012630522 0.929043678505892
29.6080012638122 0.606949623498172
29.6240012645721 0.666024880015426
29.6400012653321 0.844814119985385
29.6560012660921 0.530840177241623
29.672001266852 0.428212543579673
29.688001267612 0.693912551915509
29.7040012683719 0.704639650840724
29.7200012691319 0.62866326801351
29.7360012698919 0.674915843482892
29.7520012706518 0.522868160766241
29.7680012714118 0.729438327154398
29.7840012721717 0.797652532388343
29.8000012729317 0.708649883926812
29.8160012736916 0.845492995091753
29.8320012744516 0.842055837921687
29.8480012752116 0.938174910819885
29.8640012759715 1.11453617266794
29.8800012767315 1.06084479720966
29.8960012774914 0.676659588267363
29.9120012782514 0.884636027841347
29.9280012790114 0.895766161130942
29.9440012797713 0.675004905461328
29.9600012805313 0.803205923828321
29.9760012812912 0.603236450695066
29.9920012820512 0.477518119122093
30.0080012828112 0.70318360800179
30.0240012835711 0.583172092700305
30.0400012843311 0.844491298501296
30.056001285091 0.884039868936743
30.072001285851 0.742915061506211
30.088001286611 0.467522484322644
30.1040012873709 0.458624427598935
30.1200012881309 0.77449443265561
30.1360012888908 0.797455428109693
30.1520012896508 0.727924134908917
30.1680012904107 0.509375250693106
30.1840012911707 0.535179534605435
30.2000012919307 0.767843939722042
30.2160012926906 0.625581975149589
30.2320012934506 0.759812292104989
30.2480012942105 0.750079030236273
30.2640012949705 0.730740176372587
30.2800012957305 0.892946951558607
30.2960012964904 0.700003227458005
30.3120012972504 0.634062875356715
30.3280012980103 0.787567180230663
30.3440012987703 0.70920501759783
30.3600012995303 0.524756986858323
30.3760013002902 0.86036527565303
30.3920013010502 0.690178927011456
30.4080013018101 0.593601241168598
30.4240013025701 0.787184373345367
30.4400013033301 0.750620847005528
30.45600130409 0.518113147744912
30.47200130485 0.742114222605393
30.4880013056099 0.651855343952665
30.5040013063699 0.551262861756372
30.5200013071299 0.764841881110429
30.5360013078898 0.798564219063011
30.5520013086498 0.539886832902683
30.5680013094097 0.14512178577221
30.5840013101697 0.0163078798359111
30.6000013109296 0.317449959522036
30.6160013116896 0.586646693928673
30.6320013124496 0.334890282003647
30.6480013132095 0.349621586488459
30.6640013139695 0.61508472301715
30.6800013147294 0.552482440449475
30.6960013154894 0.704424572496185
30.7120013162494 0.499500942128119
30.7280013170093 0.335083183166533
30.7440013177693 0.334233993037993
30.7600013185292 0.392652351678427
30.7760013192892 0.507514963245382
30.7920013200492 0.590825982574773
30.8080013208091 0.55183094303738
30.8240013215691 0.646435955922263
30.840001322329 0.658479723189751
30.856001323089 0.447139810472019
30.872001323849 0.580875998984754
30.8880013246089 0.515881215733091
30.9040013253689 0.460861718451355
30.9200013261288 0.359541126956428
30.9360013268888 0.552314482133004
30.9520013276488 0.761911485067589
30.9680013284087 0.860868936230847
30.9840013291687 0.75779609747748
31.0000013299286 0.46687549203041
31.0160013306886 0.676707556004311
31.0320013314485 0.951434363752672
31.0480013322085 0.758050986922766
31.0640013329685 0.839975052801151
31.0800013337284 0.851319849015431
31.0960013344884 0.765669727039244
31.1120013352483 0.745347415144692
31.1280013360083 0.749003677377648
31.1440013367683 1.01288196005499
31.1600013375282 1.33129263146064
31.1760013382882 1.00145897594458
31.1920013390481 0.793082470607149
31.2080013398081 0.624880706080939
31.2240013405681 0.73650805516664
31.240001341328 1.00372519122545
31.256001342088 0.924676774243014
31.2720013428479 0.680647657426314
31.2880013436079 0.877130258323376
31.3040013443679 0.648730116819642
31.3200013451278 0.737952593368739
31.3360013458878 0.78535091925352
31.3520013466477 0.461880185638873
31.3680013474077 0.62964351163272
31.3840013481677 0.910820336874214
31.4000013489276 0.845361410863308
31.4160013496876 0.472188468604936
31.4320013504475 0.709689460226128
31.4480013512075 0.757416185764543
31.4640013519674 0.622192334555459
31.4800013527274 0.712462269948802
31.4960013534874 0.78222520588639
31.5120013542473 0.770101058804022
31.5280013550073 0.724908760919708
31.5440013557672 0.486054342693717
31.5600013565272 0.792790736831416
31.5760013572872 0.953535132699212
31.5920013580471 0.820028256142872
31.6080013588071 0.653177688806929
31.624001359567 0.694438215172537
31.640001360327 0.614114621505283
31.656001361087 0.47327287931277
31.6720013618469 0.221768699805904
31.6880013626069 0.343289164490229
31.7040013633668 0.518347818395481
31.7200013641268 0.493721128214936
31.7360013648868 0.575515179782831
31.7520013656467 0.337354043670632
31.7680013664067 0.465000037626671
31.7840013671666 0.684966742334387
31.8000013679266 0.487358406491957
31.8160013686865 0.377065850442833
31.8320013694465 0.568221655929825
31.8480013702065 0.551402758772472
31.8640013709664 0.407834099707065
31.8800013717264 0.467029160685437
31.8960013724863 0.585415004725102
31.9120013732463 0.634777396114322
31.9280013740063 0.655861357578931
31.9440013747662 0.342130820200909
31.9600013755262 0.713434871785883
31.9760013762861 0.768762253582252
31.9920013770461 0.604170457735068
32.0080013778061 1.03333863181423
32.024001378566 0.826839723486231
32.040001379326 0.612782474141963
32.0560013800859 0.743253031276825
32.0720013808459 0.701548547745449
32.0880013816059 0.586920184504717
32.1040013823658 0.695344432976309
32.1200013831258 0.646927711756268
32.1360013838857 0.510792845504946
32.1520013846457 0.668376229661011
32.1680013854057 0.605319054627989
32.1840013861656 0.236831081798025
32.2000013869256 0.287472476648188
32.2160013876855 0.486490207443985
32.2320013884455 0.539519890941249
32.2480013892054 0.706841926813579
32.2640013899654 0.621450466498824
32.2800013907254 0.450367838998083
32.2960013914853 0.332944542334589
32.3120013922453 0.572100725562889
32.3280013930052 0.530333684368167
32.3440013937652 0.304855199542675
32.3600013945252 0.361935728659435
32.3760013952851 0.480960121017922
32.3920013960451 0.425526282816514
32.408001396805 0.127035666601183
32.424001397565 0.20918817040778
32.440001398325 0.482377177131744
32.4560013990849 0.291535694198044
32.4720013998449 0.171099108263
32.4880014006048 0.185423299374603
32.5040014013648 0.26085011108115
32.5200014021248 0.512332715622618
32.5360014028847 0.336451537886409
32.5520014036447 0.242451384853512
32.5680014044046 0.365300197907045
32.5840014051646 0.322197500909531
32.6000014059246 0.246403351451095
32.6160014066845 0.392873656454507
32.6320014074445 0.409186543727275
32.6480014082044 0.493623907508721
32.6640014089644 0.389058940085119
32.6800014097243 0.335708948893721
32.6960014104843 0.544269395895364
32.7120014112443 0.62175289513204
32.7280014120042 0.497233413715393
32.7440014127642 0.718986066950899
32.7600014135241 0.715327538096417
32.7760014142841 0.42162490143059
32.7920014150441 0.379141161240783
32.808001415804 0.483822517393116
32.824001416564 0.267577522772808
32.8400014173239 0.177991997197604
32.8560014180839 0.515583039391768
32.8720014188439 0.468872663043786
32.8880014196038 0.462705668930858
32.9040014203638 0.479779242311392
32.9200014211237 0.493618045894022
32.9360014218837 0.564959609441773
32.9520014226437 0.637866665498931
32.9680014234036 0.534730925504012
32.9840014241636 0.156801267228585
33.0000014249235 0.410326782097848
33.0160014256835 0.592062713954858
33.0320014264435 0.417213729402844
33.0480014272034 0.406009287260429
33.0640014279634 0.36206931515401
33.0800014287233 0.312625054000551
33.0960014294833 0.331669554723718
33.1120014302432 0.365284306099097
33.1280014310032 0.449141356962514
33.1440014317632 0.41733350332419
33.1600014325231 0.100603852741325
33.1760014332831 0.15497458706056
33.192001434043 0.472694609842769
33.208001434803 0.434878430847489
33.224001435563 0.517107318007828
33.2400014363229 0.652518959724971
33.2560014370829 0.580871298794817
33.2720014378428 0.352488277742716
33.2880014386028 0.430530466988611
33.3040014393628 0.375343250224591
33.3200014401227 0.364249183508169
33.3360014408827 0.482627754274722
33.3520014416426 0.39396865834395
33.3680014424026 0.341989799979043
33.3840014431626 0.531147196863341
33.4000014439225 0.609744069656835
33.4160014446825 0.261190953912881
33.4320014454424 0.34752755503044
33.4480014462024 0.510964979187274
33.4640014469623 0.279924680072512
33.4800014477223 0.318420854150577
33.4960014484823 0.532215600547683
33.5120014492422 0.42451643420167
33.5280014500022 0.36257680260275
33.5440014507621 0.390141316517719
33.5600014515221 0.274231175916887
33.5760014522821 0.462040353783695
33.592001453042 0.416163011289902
33.608001453802 0.276012772440011
33.6240014545619 0.283530960888654
33.6400014553219 0.210526386087289
33.6560014560819 0.312106181419844
33.6720014568418 0.434985532242257
33.6880014576018 0.332133016775638
33.7040014583617 0.27642513731
33.7200014591217 0.394258465891634
33.7360014598817 0.523675611625249
33.7520014606416 0.267396599375512
33.7680014614016 0.49803464566587
33.7840014621615 0.611309186068389
33.8000014629215 0.530379981649734
33.8160014636815 0.492211679050339
33.8320014644414 0.374855114804276
33.8480014652014 0.311724283075743
33.8640014659613 0.424359489955479
33.8800014667213 0.160499381511736
33.8960014674812 0.0937234662339144
33.9120014682412 0.374642115559332
33.9280014690012 0.414019484291241
33.9440014697611 0.592609701540792
33.9600014705211 0.697410703313318
33.976001471281 0.550269036419885
33.992001472041 0.427654319148904
34.008001472801 0.146004214033207
34.0240014735609 0.320050881796259
34.0400014743209 0.466628541948178
34.0560014750808 0.444793538716252
34.0720014758408 0.467524352112276
34.0880014766008 0.507261555884103
34.1040014773607 0.589074693282623
34.1200014781207 0.579224355222732
34.1360014788806 0.612434454636349
34.1520014796406 0.608888535494338
34.1680014804006 0.51961700780222
34.1840014811605 0.564005282820788
34.2000014819205 0.552642210347821
34.2160014826804 0.579511403654529
34.2320014834404 0.516634020521026
34.2480014842004 0.458597008076246
34.2640014849603 0.691570403695862
34.2800014857203 0.311732404881025
34.2960014864802 0.183046893861718
34.3120014872402 0.587636403185108
34.3280014880001 0.751884909391559
34.3440014887601 0.759321952811269
34.3600014895201 0.706097673264308
34.37600149028 0.596181943884307
34.39200149104 0.786905649512552
34.4080014917999 1.07031831228732
34.4240014925599 0.985776901479931
34.4400014933199 0.970504886701068
34.4560014940798 1.3403534569569
34.4720014948398 1.22774533092011
34.4880014955997 1.11661503599832
34.5040014963597 1.47593166545062
34.5200014971197 1.48716336195796
34.5360014978796 1.53910980358282
34.5520014986396 1.75135353140419
34.5680014993995 1.32471064096094
34.5840015001595 1.31509051211166
34.6000015009195 1.59140042455055
34.6160015016794 1.79810660078303
34.6320015024394 2.12824983623108
34.6480015031993 2.25231766461084
34.6640015039593 1.83079050378838
34.6800015047193 1.91004658467901
34.6960015054792 2.14679754014271
34.7120015062392 2.00840139292129
34.7280015069991 2.27434483755057
34.7440015077591 2.56951301536793
34.760001508519 2.7595246623696
34.776001509279 2.74102771430986
34.792001510039 2.72351144193858
34.8080015107989 2.61681031939323
34.8240015115589 2.91757817556454
34.8400015123188 3.33149016376769
34.8560015130788 2.95997137007709
34.8720015138388 3.35167307118447
34.8880015145987 3.37988603728557
34.9040015153587 3.40059822289775
34.9200015161186 3.66372072098294
34.9360015168786 3.87024532891849
34.9520015176386 3.60938019513176
34.9680015183985 3.70449074346142
34.9840015191585 3.78559085033517
35.0000015199184 3.57534742814464
35.0160015206784 3.47296814834998
35.0320015214384 3.43326609919192
35.0480015221983 3.30147160973748
35.0640015229583 3.26377036667704
35.0800015237182 2.94470242357898
35.0960015244782 2.67347923469273
35.1120015252381 2.76424654855561
35.1280015259981 2.53301427577822
35.1440015267581 2.6004934712641
35.160001527518 2.64767618014132
35.176001528278 2.28464426099194
35.1920015290379 2.46421415347493
35.2080015297979 2.2638016977254
35.2240015305579 2.23583205994345
35.2400015313178 2.36041825878194
35.2560015320778 2.14026397733276
35.2720015328377 1.99597743186638
35.2880015335977 2.05695030095718
35.3040015343577 1.97708509882315
35.3200015351176 1.7400849040841
35.3360015358776 1.70627419889991
35.3520015366375 1.93790234955082
35.3680015373975 2.12810554803263
35.3840015381575 1.99900388321589
35.4000015389174 1.83842977807167
35.4160015396774 1.7600747917147
35.4320015404373 2.05684310497671
35.4480015411973 2.25941970235549
35.4640015419573 1.81383284338231
35.4800015427172 1.67935459539162
35.4960015434772 1.88881541846377
35.5120015442371 1.8633768560703
35.5280015449971 1.70278730214539
35.544001545757 1.5330905802186
35.560001546517 1.60353068850063
35.576001547277 1.71004750657913
35.5920015480369 1.53655605104765
35.6080015487969 1.61925862615754
35.6240015495568 1.7265283236786
35.6400015503168 1.61011681419765
35.6560015510768 1.95735130799959
35.6720015518367 1.78156444316995
35.6880015525967 1.44237318928089
35.7040015533566 1.83439471967925
35.7200015541166 1.79061155995423
35.7360015548766 1.84893873202345
35.7520015556365 1.91826576742731
35.7680015563965 1.72369785962081
35.7840015571564 1.53968436838013
35.8000015579164 1.89767536090175
35.8160015586764 2.22661369667313
35.8320015594363 2.19392420601913
35.8480015601963 2.00636382673709
35.8640015609562 1.9411333135454
35.8800015617162 1.93254310913472
35.8960015624762 1.71590116073566
35.9120015632361 1.75210761388841
35.9280015639961 2.38016973081133
35.944001564756 2.33134905781429
35.960001565516 2.07337939419719
35.9760015662759 2.06906783985671
35.9920015670359 1.99069088623541
36.0080015677959 1.87328068806148
36.0240015685558 1.71806012681881
36.0400015693158 1.74934215041993
36.0560015700757 1.86393867979993
36.0720015708357 1.81541764097255
36.0880015715957 1.53233698488292
36.1040015723556 1.50036088499252
36.1200015731156 1.45887996929157
36.1360015738755 1.35115257276139
36.1520015746355 1.42624197108038
36.1680015753955 1.63576933417793
36.1840015761554 1.33934513849166
36.2000015769154 1.38340582414201
36.2160015776753 1.27538354139488
36.2320015784353 1.47273636022749
36.2480015791953 1.60318819641328
36.2640015799552 1.32378099923353
36.2800015807152 1.51710282204395
36.2960015814751 1.50247864202172
36.3120015822351 1.28157403588855
36.328001582995 1.70613825093886
36.344001583755 2.00801312971948
36.360001584515 1.85750902318404
36.3760015852749 2.088987159309
36.3920015860349 2.31347546192827
36.4080015867948 2.61015465212881
36.4240015875548 3.27842895596077
36.4400015883148 4.14150536237899
36.4560015890747 5.01645189977721
36.4720015898347 6.24354296288831
36.4880015905946 8.31491356193951
36.5040015913546 9.0992783739614
36.5200015921146 7.56711751943319
36.5360015928745 5.68112631482443
36.5520015936345 4.7227327795623
36.5680015943944 5.03068697550625
36.5840015951544 5.58399485369017
36.6000015959144 5.5596473870291
36.6160015966743 4.53319308069741
36.6320015974343 3.39245497154389
36.6480015981942 2.30551862541289
36.6640015989542 1.71012526687906
36.6800015997142 1.83050396127909
36.6960016004741 1.93391269285639
36.7120016012341 1.68544161137955
36.728001601994 1.48265076562451
36.744001602754 1.40416969923389
36.7600016035139 1.13238796474467
36.7760016042739 1.35551270971423
36.7920016050339 1.45698694239666
36.8080016057938 1.28949074532069
36.8240016065538 1.29992694118733
36.8400016073137 0.893003818565512
36.8560016080737 0.880643876978407
36.8720016088337 1.15389740183021
36.8880016095936 0.949198710475321
36.9040016103536 1.08376362072874
36.9200016111135 1.09609987934963
36.9360016118735 0.821111398076765
36.9520016126335 0.820867552232525
36.9680016133934 0.750965580791866
36.9840016141534 0.929956527823123
37.0000016149133 1.01782716129633
37.0160016156733 0.941719560169531
37.0320016164333 0.999731621563374
37.0480016171932 0.80576833040517
37.0640016179532 0.841969077251507
37.0800016187131 1.0200460027523
37.0960016194731 0.843437573611396
37.1120016202331 1.03254258543476
37.128001620993 1.04283582819305
37.144001621753 0.96696905621798
37.1600016225129 0.924208509282868
37.1760016232729 0.705494355698066
37.1920016240328 0.798005916242957
37.2080016247928 0.791658096746758
37.2240016255528 0.927985314331565
37.2400016263127 1.29179523095097
37.2560016270727 1.11688221072855
37.2720016278326 1.13245013617435
37.2880016285926 1.48595321631008
37.3040016293526 1.46332366200569
37.3200016301125 1.17943708124101
37.3360016308725 0.882386131178592
37.3520016316324 1.03580980819586
37.3680016323924 0.859463324448869
37.3840016331524 0.968568944020231
37.4000016339123 1.19130924835279
37.4160016346723 1.30931510078966
37.4320016354322 1.2392032394833
37.4480016361922 1.15304788021444
37.4640016369522 1.1442976287923
37.4800016377121 1.12056204538349
37.4960016384721 1.39824437006294
37.512001639232 1.64254919564462
37.528001639992 1.26638740762537
37.544001640752 1.72949401443874
37.5600016415119 1.9431086680023
37.5760016422719 1.9748597529544
37.5920016430318 1.89512645097972
37.6080016437918 1.75515791330389
37.6240016445517 2.23875691460702
37.6400016453117 2.13159230054108
37.6560016460717 2.35595955664054
37.6720016468316 2.70741927824986
37.6880016475916 2.04947996442044
37.7040016483515 1.91726778564419
37.7200016491115 2.0291224988726
37.7360016498715 2.18090292311788
37.7520016506314 2.24780361499579
37.7680016513914 1.83972147749462
37.7840016521513 1.69327161140295
37.8000016529113 1.74541536557149
37.8160016536713 1.86589470628421
37.8320016544312 1.90473078724797
37.8480016551912 1.68014010776799
37.8640016559511 1.41179163106691
37.8800016567111 1.31419599078625
37.8960016574711 1.30687282239084
37.912001658231 1.26941391103537
37.928001658991 1.2306648460842
37.9440016597509 1.36921324926756
37.9600016605109 1.28415978823871
37.9760016612708 1.12448817537135
37.9920016620308 1.17200411984049
38.0080016627908 1.14836717696855
38.0240016635507 1.13711027423624
38.0400016643107 1.03073972899394
38.0560016650706 0.953479730116007
38.0720016658306 1.04908652000369
38.0880016665906 1.53069015676091
38.1040016673505 1.36006408405853
38.1200016681105 1.0221273990131
38.1360016688704 1.19872272110786
38.1520016696304 1.27538364043363
38.1680016703904 1.34599909241109
38.1840016711503 1.17126485761355
38.2000016719103 1.1710826676555
38.2160016726702 1.35146258411391
38.2320016734302 1.42845185654814
38.2480016741902 1.64347342673447
38.2640016749501 1.3949474825184
38.2800016757101 1.47775357193149
38.29600167647 1.8753884316419
38.31200167723 1.82637533323104
38.32800167799 1.78034556626781
38.3440016787499 1.84154170970304
38.3600016795099 1.64844168735479
38.3760016802698 1.81872248661123
38.3920016810298 1.75826298130803
38.4080016817897 2.05968840455178
38.4240016825497 2.17840809454813
38.4400016833097 1.9620518635232
38.4560016840696 1.72000131873032
38.4720016848296 1.98225653523184
38.4880016855895 2.13056129916149
38.5040016863495 1.92112970007378
38.5200016871095 1.59481451342777
38.5360016878694 1.40830607367504
38.5520016886294 1.85257300397464
38.5680016893893 1.8177050816251
38.5840016901493 1.55016388735136
38.6000016909093 1.62552765793519
38.6160016916692 1.63238277037363
38.6320016924292 1.55146120974831
38.6480016931891 1.08122113645608
38.6640016939491 1.2383441893977
38.6800016947091 1.34447576774662
38.696001695469 1.24154403257264
38.712001696229 1.04467991290488
38.7280016969889 1.1411991876378
38.7440016977489 1.40779119993102
38.7600016985089 1.32131166877577
38.7760016992688 1.01470462219859
38.7920017000288 1.4050861528805
38.8080017007887 1.23492697151361
38.8240017015487 0.784541579691704
38.8400017023086 1.05238653224634
38.8560017030686 1.00032231042982
38.8720017038286 0.908729003672606
38.8880017045885 1.03665339564945
38.9040017053485 1.14810164803606
38.9200017061084 0.72184076728294
38.9360017068684 0.793421457968866
38.9520017076284 1.08324829009802
38.9680017083883 0.96188140282981
38.9840017091483 1.2789153174549
39.0000017099082 1.28185840146598
39.0160017106682 1.04263893941097
39.0320017114282 0.973632071240792
39.0480017121881 1.1031878437925
39.0640017129481 1.17875335007495
39.080001713708 1.04791109453786
39.096001714468 1.16751110981624
39.112001715228 1.00049255543486
39.1280017159879 1.16121076619334
39.1440017167479 0.938911509748931
39.1600017175078 0.791555383364019
39.1760017182678 1.02602191507411
39.1920017190278 0.814111524358226
39.2080017197877 1.18076937739467
39.2240017205477 1.48534313192397
39.2400017213076 1.39589207909762
39.2560017220676 1.42410288468675
39.2720017228275 1.37591048244376
39.2880017235875 1.34841155297462
39.3040017243475 1.53637493237729
39.3200017251074 1.42383862649611
39.3360017258674 1.83507646355874
39.3520017266273 2.18521898430772
39.3680017273873 2.90934295764492
39.3840017281473 4.36130074049131
39.4000017289072 5.43615528950153
39.4160017296672 5.90760163355991
39.4320017304271 5.48748680172842
39.4480017311871 4.61819056343368
39.4640017319471 3.80271532210971
39.480001732707 3.22524616290545
39.496001733467 3.21589209915721
39.5120017342269 3.72762429417948
39.5280017349869 3.46709818625148
39.5440017357469 2.81607425193115
39.5600017365068 1.96758222109875
39.5760017372668 1.11294451296141
39.5920017380267 0.810808013414973
39.6080017387867 1.03416589332237
39.6240017395466 0.703807854016
39.6400017403066 0.495070296858319
39.6560017410666 0.610723742114063
39.6720017418265 0.583838398364162
39.6880017425865 0.545272566799923
39.7040017433464 0.492885270640309
39.7200017441064 0.597900404546423
39.7360017448664 0.615994456492188
39.7520017456263 0.354536148186528
39.7680017463863 0.273824764720583
39.7840017471462 0.649834938986642
39.8000017479062 0.532089856998287
39.8160017486662 0.332516033700217
39.8320017494261 0.236043081001368
39.8480017501861 0.55835902193132
39.864001750946 0.706328500916793
39.880001751706 0.519215744886263
39.896001752466 0.576153875355932
39.9120017532259 0.451258553101144
39.9280017539859 0.480254911862316
39.9440017547458 0.600057695894769
39.9600017555058 0.577954681381229
39.9760017562658 0.578928805882453
39.9920017570257 0.706000409572114
