'Id: "" Comment: "" Operator: "Lab Manager" Anode: "Cu" Scantype: "Locked Coupled" TimePerStep: "157.8621" 
3 2.51184361594616
3.01600000075996 2.11794254220171
3.03200000151992 1.83937467764794
3.04800000227988 1.70484459226038
3.06400000303984 1.52557305994332
3.0800000037998 1.06009871698815
3.09600000455976 0.818952854591906
3.11200000531971 0.648912994850125
3.12800000607967 0.484774011773457
3.14400000683963 0.654806237359011
3.16000000759959 0.318015271486878
3.17600000835955 0.987716538757187
3.19200000911951 0.692194393124542
3.20800000987947 0.425863971712936
3.22400001063943 0.548936297450904
3.24000001139939 0.464747942955015
3.25600001215935 0.525060407767043
3.27200001291931 0.815269891289994
3.28800001367927 0.432656731977065
3.30400001443923 0.13277490580381
3.32000001519918 0.507433549689534
3.33600001595914 1.02384603815038
3.3520000167191 0.760486869519728
3.36800001747906 0.545495499994495
3.38400001823902 0.555142202907238
3.40000001899898 0.697513464115072
3.41600001975894 1.16658205765696
3.4320000205189 0.631346222524162
3.44800002127886 0.60933786058164
3.46400002203882 0.956789936226912
3.48000002279878 0.926771542539509
3.49600002355874 0.372512266766982
3.5120000243187 0.23886752256826
3.52800002507865 0.32606191240891
3.54400002583861 0.739297700593163
3.56000002659857 0.74421473376476
3.57600002735853 0.419981096331959
3.59200002811849 0.712747040546887
3.60800002887845 0.812679384407932
3.62400002963841 0.205592184864908
3.64000003039837 0.829477320060278
3.65600003115833 0.450291144335516
3.67200003191829 0.373239587773284
3.68800003267825 0.851072969530943
3.70400003343821 0.570924783150421
3.72000003419816 0.26052502513463
3.73600003495812 0.660458732120702
3.75200003571808 1.06430002479304
3.76800003647804 0.726722409381605
3.784000037238 1.07332925627702
3.80000003799796 1.30723475567114
3.81600003875792 0.806681171261115
3.83200003951788 0.791491777735455
3.84800004027784 0.0359990764681051
3.8640000410378 0.608638761684592
3.88000004179776 0.61040042923975
3.89600004255772 0.0835419454713424
3.91200004331768 0.722816501686651
3.92800004407763 0.843004084324566
3.94400004483759 0.227795162464208
3.96000004559755 0.772214632320019
3.97600004635751 0.538142538868001
3.99200004711747 0.437528730709456
4.00800004787743 0.826582994017993
4.02400004863739 0.764048699085841
4.04000004939735 0.405295188027814
4.05600005015731 0.509817852361479
4.07200005091727 0.742031891421302
4.08800005167723 0.815551309206583
4.10400005243719 0.847097895631087
4.12000005319715 0.713826287873285
4.1360000539571 0.726716971971396
4.15200005471706 0.464822872681882
4.16800005547702 0.656877944438591
4.18400005623698 0.533068760987437
4.20000005699694 0.23315928688946
4.2160000577569 0.592581462000325
4.23200005851686 0.509846839035081
4.24800005927682 0.416931605816465
4.26400006003678 0.404338517644398
4.28000006079674 0.5651143495996
4.2960000615567 1.1558206988919
4.31200006231666 0.316889902443151
4.32800006307662 0.496716519453429
4.34400006383657 0.837942321948312
4.36000006459653 0.446848273810815
4.37600006535649 0.597403272039323
4.39200006611645 0.993570893837514
4.40800006687641 0.850085139747613
4.42400006763637 0.104280402538333
4.44000006839633 0.426802718250546
4.45600006915629 0.838522991026085
4.47200006991625 0.572570306424669
4.48800007067621 0.823342102476619
4.50400007143617 0.450160060240947
4.52000007219613 0.782237581148994
4.53600007295609 0.924600865022832
4.55200007371604 0.763728104215755
4.568000074476 0.609299230311649
4.58400007523596 0.651564942603258
4.60000007599592 0.787758931009432
4.61600007675588 1.05219624943727
4.63200007751584 0.828073518939618
4.6480000782758 1.03899704547048
4.66400007903576 0.515574127638111
4.68000007979572 0.658882989341951
4.69600008055568 0.708925499097301
4.71200008131564 0.454692611421393
4.7280000820756 0
4.74400008283556 0.739245959044641
4.76000008359551 0.857032407697638
4.77600008435547 0.465299066691966
4.79200008511543 0.507037791383361
4.80800008587539 0.745934822126923
4.82400008663535 1.06431994358586
4.84000008739531 0.746302082766782
4.85600008815527 0.951360939524164
4.87200008891523 1.01062398059731
4.88800008967519 0.932579642549552
4.90400009043515 1.14684255954499
4.92000009119511 1.02418288421278
4.93600009195507 0.530862471405381
4.95200009271502 1.04626844692346
4.96800009347498 0.960571569797434
4.98400009423494 1.06331857102865
5.0000000949949 0.647291633362791
5.01600009575486 0.129096134495022
5.03200009651482 0.149887054157091
5.04800009727478 0.688171567456642
5.06400009803474 0.690439163100805
5.0800000987947 0.595009239004234
5.09600009955466 0.205666103277942
5.11200010031462 0.613158790777025
5.12800010107458 1.00819076952095
5.14400010183454 0.553453712585473
5.16000010259449 0.217497497550031
5.17600010335445 0.433547869711294
5.19200010411441 0.661186447706044
5.20800010487437 0.815984967841061
5.22400010563433 0.981478695384993
5.24000010639429 0.788261758308103
5.25600010715425 0.949170164756101
5.27200010791421 1.20040255877133
5.28800010867417 1.16997222764147
5.30400010943413 0.980577492734007
5.32000011019409 1.00156919055122
5.33600011095405 0.789750898626711
5.35200011171401 0.599392290011384
5.36800011247396 0.70613835742628
5.38400011323392 0.934556612945997
5.40000011399388 0.936645521168305
5.41600011475384 0.717784702142163
5.4320001155138 1.015988115082
5.44800011627376 0.665470646383714
5.46400011703372 1.16467493521966
5.48000011779368 1.32800864982131
5.49600011855364 1.45211119345772
5.5120001193136 1.13252353076145
5.52800012007356 1.21836542254464
5.54400012083352 1.13470444483122
5.56000012159348 1.13002057914608
5.57600012235343 1.21357841760365
5.59200012311339 1.29077248323499
5.60800012387335 0.754203294930358
5.62400012463331 1.51400031514969
5.64000012539327 1.11143665670622
5.65600012615323 1.1893861510775
5.67200012691319 1.1247491702461
5.68800012767315 1.25816836097459
5.70400012843311 1.75889038291233
5.72000012919307 1.56358128109629
5.73600012995303 1.41522707438581
5.75200013071299 1.82946907936709
5.76800013147295 1.6505676733131
5.7840001322329 2.02763456620835
5.80000013299286 1.39949448411681
5.81600013375282 1.51053287748652
5.83200013451278 1.47883264089437
5.84800013527274 1.64375842830886
5.8640001360327 1.59532760042468
5.88000013679266 1.73528937225656
5.89600013755262 1.15660788018065
5.91200013831258 1.09024607357985
5.92800013907254 2.04236589119923
5.9440001398325 1.78580015341619
5.96000014059246 1.71386792234511
5.97600014135242 1.92775733695923
5.99200014211237 1.83374160867814
6.00800014287233 1.6080991200644
6.02400014363229 1.95423269337869
6.04000014439225 1.59943736913812
6.05600014515221 2.05640828783471
6.07200014591217 2.09151640001842
6.08800014667213 1.88340902352151
6.10400014743209 2.16556360599574
6.12000014819205 2.34670885045539
6.13600014895201 2.8250133228277
6.15200014971197 2.75839841596887
6.16800015047192 3.14373570788397
6.18400015123188 2.48042678607235
6.20000015199184 2.86391470697593
6.2160001527518 2.82597493918929
6.23200015351176 3.0521052690317
6.24800015427172 2.76101079464914
6.26400015503168 3.4843716073927
6.28000015579164 2.74909353932461
6.2960001565516 3.18244144770752
6.31200015731156 2.72275168037396
6.32800015807152 2.4798145291405
6.34400015883148 2.75780212356263
6.36000015959144 2.92663516363758
6.37600016035139 2.65311789940799
6.39200016111135 3.04103776701666
6.40800016187131 3.05462023506472
6.42400016263127 2.92038956506488
6.44000016339123 3.16119156004847
6.45600016415119 3.13053971355532
6.47200016491115 2.88940660281546
6.48800016567111 3.10314964444372
6.50400016643107 2.86769832397995
6.52000016719103 2.63312042160221
6.53600016795099 2.53688035639324
6.55200016871095 3.00926599924347
6.56800016947091 2.62930162653893
6.58400017023086 2.89966025023102
6.60000017099082 3.62064753918574
6.61600017175078 3.3370945275243
6.63200017251074 3.06041351070791
6.6480001732707 3.75057269041763
6.66400017403066 2.80398675454611
6.68000017479062 3.23094437396967
6.69600017555058 3.43348452200365
6.71200017631054 3.33870961050566
6.7280001770705 3.2575380196558
6.74400017783046 3.5818162262702
6.76000017859042 3.2302613532435
6.77600017935038 3.72096197520584
6.79200018011033 3.44795357890317
6.80800018087029 3.55013034157898
6.82400018163025 3.5253208157231
6.84000018239021 3.43333887007944
6.85600018315017 3.4189604045238
6.87200018391013 3.28940813405777
6.88800018467009 3.31677396443816
6.90400018543005 3.5347746065469
6.92000018619001 3.2278339060622
6.93600018694997 3.22800343796741
6.95200018770993 3.79318222240534
6.96800018846989 3.46109538886579
6.98400018922985 3.50838663918985
7.0000001899898 3.50891078278159
7.01600019074976 3.62955657100228
7.03200019150972 3.1064426960931
7.04800019226968 3.07020689184022
7.06400019302964 3.648426812601
7.0800001937896 3.73625028090737
7.09600019454956 3.44510847989353
7.11200019530952 3.32642570675328
7.12800019606948 3.06739951859217
7.14400019682944 3.65143395973579
7.1600001975894 3.87849093952561
7.17600019834936 3.54331659309888
7.19200019910931 3.4970660422229
7.20800019986927 3.33615193054689
7.22400020062923 3.0255713036063
7.24000020138919 3.32370483831285
7.25600020214915 3.3384345102542
7.27200020290911 2.95877338123001
7.28800020366907 2.89066344306222
7.30400020442903 2.97685739270698
7.32000020518899 3.25516066978887
7.33600020594895 3.02509379687128
7.35200020670891 3.47526475754634
7.36800020746887 2.73590680848516
7.38400020822883 2.66321248109726
7.40000020898878 2.81674818137639
7.41600020974874 3.00139489383492
7.4320002105087 3.17992616321769
7.44800021126866 2.7266925358116
7.46400021202862 3.24979058394072
7.48000021278858 3.25312047843285
7.49600021354854 3.11639739374726
7.5120002143085 2.98291191561907
7.52800021506846 3.00746237575059
7.54400021582842 2.99468186221383
7.56000021658838 2.91902672670943
7.57600021734834 2.70345318080837
7.5920002181083 3.23369970232773
7.60800021886825 2.83581687883593
7.62400021962821 2.78714435211377
7.64000022038817 3.40575125286735
7.65600022114813 3.39297483828745
7.67200022190809 2.99171076169992
7.68800022266805 2.99475515290923
7.70400022342801 2.69057600677169
7.72000022418797 2.90647079132486
7.73600022494793 3.18069194930403
7.75200022570789 3.2803519710087
7.76800022646785 3.20848140756539
7.78400022722781 2.01072249586005
7.80000022798777 2.90458917217155
7.81600022874772 3.25941089246734
7.83200022950768 3.14096472239176
7.84800023026764 2.62829619053751
7.8640002310276 2.83010426035477
7.88000023178756 3.27960984454811
7.89600023254752 2.99141935360805
7.91200023330748 2.95138480120255
7.92800023406744 2.75385985305371
7.9440002348274 2.64362789256112
7.96000023558736 2.70155022160522
7.97600023634732 3.05946419887975
7.99200023710728 2.70295876656208
8.00800023786724 2.66689753270561
8.0240002386272 2.49813235913209
8.04000023938715 2.52484975074981
8.05600024014711 3.00778497729656
8.07200024090707 2.50906166024929
8.08800024166703 2.65243943828382
8.10400024242699 2.79830242101003
8.12000024318695 2.82573662251301
8.13600024394691 2.34277569668136
8.15200024470687 2.24171267703921
8.16800024546683 2.46479628991193
8.18400024622679 2.20767891954261
8.20000024698675 2.58344466704391
8.21600024774671 2.58323404484611
8.23200024850667 2.67547542927085
8.24800024926662 2.4379192059773
8.26400025002658 2.33985309281541
8.28000025078654 2.45556686226129
8.2960002515465 2.59518603301491
8.31200025230646 2.6710894235492
8.32800025306642 2.27321684408248
8.34400025382638 2.34443545478751
8.36000025458634 2.33986869743721
8.3760002553463 2.3278941542858
8.39200025610626 2.00147262635873
8.40800025686622 1.97907438805078
8.42400025762618 2.06022778735505
8.44000025838614 2.19598817012401
8.45600025914609 2.25762959570519
8.47200025990605 2.06455507675285
8.48800026066601 1.80355863982139
8.50400026142597 2.0596376198972
8.52000026218593 2.35543877928629
8.53600026294589 2.60670168522417
8.55200026370585 2.58573114138226
8.56800026446581 2.3742957460626
8.58400026522577 2.56882006863399
8.60000026598573 2.63046948000436
8.61600026674569 2.56640632623321
8.63200026750565 2.20634699864157
8.6480002682656 2.25211159841272
8.66400026902556 2.53869704329017
8.68000026978552 3.47447455449623
8.69600027054548 3.65984955978427
8.71200027130544 3.25916119307191
8.7280002720654 4.15888097272943
8.74400027282536 4.05912650179089
8.76000027358532 3.97092460084711
8.77600027434528 4.55620675546997
8.79200027510524 5.58276481772721
8.8080002758652 6.43740345844884
8.82400027662516 7.54174727713218
8.84000027738512 7.61420178733831
8.85600027814507 5.5635658522184
8.87200027890503 3.71909654757751
8.88800027966499 2.75955960960848
8.90400028042495 2.12861593806966
8.92000028118491 2.31259883312172
8.93600028194487 1.99472566800188
8.95200028270483 1.69984629133299
8.96800028346479 1.60355983933606
8.98400028422475 1.52402355583846
9.00000028498471 1.23583281310995
9.01600028574467 1.39819068115772
9.03200028650463 1.32658010891018
9.04800028726459 1.03726944949945
9.06400028802454 0.660478082277924
9.0800002887845 0.961721595525837
9.09600028954446 0.729773942747062
9.11200029030442 0.978221075210397
9.12800029106438 0.970419376010412
9.14400029182434 0.756330485240543
9.1600002925843 0.836792296257581
9.17600029334426 1.05229052493885
9.19200029410422 1.08464809339865
9.20800029486418 0.791550184230541
9.22400029562414 0.88873417496675
9.24000029638409 0.758458697718877
9.25600029714405 0.565394006674046
9.27200029790401 0.506917243103683
9.28800029866397 0.641387579091012
9.30400029942393 0.77237412730684
9.32000030018389 0.90377780992938
9.33600030094385 0.790140557957486
9.35200030170381 0.600272471615117
9.36800030246377 0.772911378334722
9.38400030322373 0.561722076510188
9.40000030398369 0.151133260772134
9.41600030474365 0.477672975313313
9.43200030550361 0.568232641666134
9.44800030626356 0.603314488944299
9.46400030702352 0.889016836453756
9.48000030778348 0.409414797578522
9.49600030854344 0.728541418943024
9.5120003093034 0.605371913478944
9.52800031006336 0.67959917176959
9.54400031082332 1.08720640545355
9.56000031158328 1.06713479928994
9.57600031234324 0.532918905319359
9.5920003131032 0.217303432852262
9.60800031386316 0.625902278137083
9.62400031462312 0.676391292208073
9.64000031538307 0.538722561724654
9.65600031614303 0.484853436619819
9.67200031690299 0.776736880174401
9.68800031766295 0.707282972973905
9.70400031842291 1.02943072596312
9.72000031918287 0.809794779794917
9.73600031994283 0.748369519817565
9.75200032070279 0.488985354546498
9.76800032146275 0.108488250855908
9.78400032222271 0.289625968821094
9.80000032298267 0.690154158858098
9.81600032374263 0.852782180387859
9.83200032450259 0.309325357531806
9.84800032526254 0.361988031338537
9.8640003260225 0.720720926454353
9.88000032678246 0.427155152725367
9.89600032754242 0.307757446935002
9.91200032830238 0.244562870182904
9.92800032906234 0.611039169856337
9.9440003298223 0.79759351468379
9.96000033058226 0.679730074444326
9.97600033134222 0.489945386943589
9.99200033210218 0.435759110189016
10.0080003328621 0.415006878187803
10.0240003336221 0.787077785233297
10.0400003343821 0.790793385182591
10.056000335142 0.53906742827658
10.072000335902 0.616624302828031
10.0880003366619 0.710200230105752
10.1040003374219 0.482137114697505
10.1200003381819 0.929439986703391
10.1360003389418 0.834499521835681
10.1520003397018 0.625987103760739
10.1680003404617 0.942041536896628
10.1840003412217 0.411267945510838
10.2000003419816 0.191742065239268
10.2160003427416 0.52077450811773
10.2320003435016 0.485160491176243
10.2480003442615 0.393118000299488
10.2640003450215 0.572221241261408
10.2800003457814 0.609590010328022
10.2960003465414 0.711422836079974
10.3120003473014 1.18738531011545
10.3280003480613 0.640159912380026
10.3440003488213 0.936285682918216
10.3600003495812 0.854859607750026
10.3760003503412 0.720038554732159
10.3920003511012 0.62412482893893
10.4080003518611 0.54492163215448
10.4240003526211 0.583967554331453
10.440000353381 0.449045321792234
10.456000354141 0.65011963633577
10.472000354901 0.617744913091528
10.4880003556609 0.443154914562685
10.5040003564209 0.211799972493012
10.5200003571808 0.624900953891707
10.5360003579408 0.660474614642538
10.5520003587008 1.01783101557557
10.5680003594607 0.822310404658037
10.5840003602207 0.870449266892564
10.6000003609806 0.686419877691517
10.6160003617406 0.180719906202908
10.6320003625005 0.424138089011347
10.6480003632605 0.826898877741211
10.6640003640205 0.472462236951582
10.6800003647804 0.459819280670375
10.6960003655404 0.803544407600953
10.7120003663003 0.310452319973324
10.7280003670603 0.356852741798289
10.7440003678203 0.718386504417115
10.7600003685802 0.493526986363692
10.7760003693402 0.489214106911643
10.7920003701001 0.417242902508082
10.8080003708601 0.282408581882171
10.8240003716201 0.751500488029343
10.84000037238 0.893074772155739
10.85600037314 0.586338201018354
10.8720003738999 0.107035723728934
10.8880003746599 0.410537049399025
10.9040003754199 0.514674217928381
10.9200003761798 0.782263075021939
10.9360003769398 0.571577676368488
10.9520003776997 0.520076259639589
10.9680003784597 0.54078807812736
10.9840003792196 0.745669072377794
11.0000003799796 0.707338339386096
11.0160003807396 0.421463616917903
11.0320003814995 0.477744337354983
11.0480003822595 0.631659938316247
11.0640003830194 0.763256768588457
11.0800003837794 0.694972758677375
11.0960003845394 0.631346552142267
11.1120003852993 0.936263152302942
11.1280003860593 0.589318003728616
11.1440003868192 0.226537720845609
11.1600003875792 0.494058232074678
11.1760003883392 0.926800240315828
11.1920003890991 0.916512278994521
11.2080003898591 0.906945726535591
11.224000390619 0.989132926420451
11.240000391379 0.817360732424278
11.256000392139 0.757354998650142
11.2720003928989 0.961610752596602
11.2880003936589 0.76485724258848
11.3040003944188 0.971840209359534
11.3200003951788 0.983955196134074
11.3360003959388 0.820720691364526
11.3520003966987 0.756406102340977
11.3680003974587 0.721644006160954
11.3840003982186 0.869297295467593
11.4000003989786 0.9153386495341
11.4160003997385 1.10382009802879
11.4320004004985 1.15471383487466
11.4480004012585 1.26894718726624
11.4640004020184 1.40410716193907
11.4800004027784 1.48008678716955
11.4960004035383 1.43109581558276
11.5120004042983 1.64965184239391
11.5280004050583 2.39039068533159
11.5440004058182 2.63587096968645
11.5600004065782 3.66713448407021
11.5760004073381 4.47934963062624
11.5920004080981 5.00382485811421
11.6080004088581 4.29263422226495
11.624000409618 3.5046563420381
11.640000410378 2.51106108463264
11.6560004111379 1.76320262656923
11.6720004118979 1.2822509105633
11.6880004126579 1.41452281909056
11.7040004134178 1.71648463700066
11.7200004141778 1.65777368733525
11.7360004149377 1.7218463687002
11.7520004156977 1.476164324969
11.7680004164577 1.34097130779435
11.7840004172176 1.98542316850872
11.8000004179776 1.9047832722617
11.8160004187375 1.6603071400422
11.8320004194975 2.02951066268875
11.8480004202574 1.40150533341058
11.8640004210174 1.582406299578
11.8800004217774 1.83519798848467
11.8960004225373 2.0140826785177
11.9120004232973 2.32476166465754
11.9280004240572 2.1074865636371
11.9440004248172 2.38507210125451
11.9600004255772 2.57994266435555
11.9760004263371 2.73653839771225
11.9920004270971 3.00144530696053
12.008000427857 2.63927730551747
12.024000428617 2.8480526290782
12.040000429377 3.0374591413088
12.0560004301369 3.28297202604659
12.0720004308969 3.26101555406418
12.0880004316568 3.88202151349722
12.1040004324168 4.18448879524827
12.1200004331768 4.72712160084193
12.1360004339367 4.37098510003765
12.1520004346967 4.6708375035744
12.1680004354566 5.5170539978901
12.1840004362166 6.25547525958111
12.2000004369766 6.7057879780355
12.2160004377365 7.60772132373267
12.2320004384965 8.50253626988948
12.2480004392564 9.99645383303214
12.2640004400164 11.8113016570329
12.2800004407763 13.9169936076996
12.2960004415363 15.886350128921
12.3120004422963 18.1139936549175
12.3280004430562 19.3484487778829
12.3440004438162 18.2125659207599
12.3600004445761 16.2056634810338
12.3760004453361 12.7463927947223
12.3920004460961 10.8248808075352
12.408000446856 8.80124161569734
12.424000447616 6.99281029382516
12.4400004483759 6.04425386228189
12.4560004491359 5.48975630161367
12.4720004498959 5.22345920807517
12.4880004506558 4.34901380971102
12.5040004514158 4.29729934135288
12.5200004521757 4.0354692238331
12.5360004529357 3.56402104170873
12.5520004536957 2.77818963719005
12.5680004544556 2.40725184775115
12.5840004552156 2.47613344171382
12.6000004559755 2.42394615726968
12.6160004567355 2.4176760541
12.6320004574954 1.72832704933763
12.6480004582554 2.07652625816553
12.6640004590154 1.40440289618257
12.6800004597753 1.68163894358162
12.6960004605353 1.8344097675205
12.7120004612952 1.3536526769159
12.7280004620552 1.21795506607525
12.7440004628152 1.30610365110555
12.7600004635751 1.38264614305577
12.7760004643351 1.28369580190251
12.792000465095 1.33091320628177
12.808000465855 1.35406167769632
12.824000466615 0.969570251353537
12.8400004673749 0.916552167771772
12.8560004681349 0.883944261022454
12.8720004688948 1.01932545446946
12.8880004696548 0.4980987701521
12.9040004704148 1.01199775245864
12.9200004711747 0.869104779168201
12.9360004719347 0.893571896080173
12.9520004726946 0.972854443921698
12.9680004734546 1.0815872038017
12.9840004742146 0.936019517141233
13.0000004749745 0.680253442104521
13.0160004757345 0.826889694111832
13.0320004764944 0.508145341747089
13.0480004772544 0.686118960929946
13.0640004780143 0.726161798080333
13.0800004787743 0.478550248837241
13.0960004795343 0.72684342642512
13.1120004802942 0.865485186607772
13.1280004810542 0.634194759875653
13.1440004818141 0.618096890430827
13.1600004825741 0.96092338580217
13.1760004833341 0.704082631342924
13.192000484094 0.770250394106167
13.208000484854 0.658367751549504
13.2240004856139 0.690760031771474
13.2400004863739 0.887844769204174
13.2560004871339 0.866224324812663
13.2720004878938 0.615204884697957
13.2880004886538 0.457439116357418
13.3040004894137 0.453734807755186
13.3200004901737 0.578753952469745
13.3360004909337 0.81301468006366
13.3520004916936 0.763309377814838
13.3680004924536 0.467106043492292
13.3840004932135 0.759915744332231
13.4000004939735 0.37376850895052
13.4160004947335 0.495120489148443
13.4320004954934 0.390946011202527
13.4480004962534 0.2837472806888
13.4640004970133 0.631027563467015
13.4800004977733 0.689222364020357
13.4960004985332 0.589947107491309
13.5120004992932 0.363075540859425
13.5280005000532 0.84570683669101
13.5440005008131 0.886190332017377
13.5600005015731 0.628000880705548
13.576000502333 0.61463946054115
13.592000503093 0.71704742346498
13.608000503853 0.87161190802002
13.6240005046129 1.00711618639941
13.6400005053729 0.848583778476949
13.6560005061328 0.908223575317852
13.6720005068928 0.508506012033021
13.6880005076528 0.427732378371804
13.7040005084127 0.483940421749969
13.7200005091727 0.576355163974023
13.7360005099326 0.784257513177867
13.7520005106926 0.330233842322732
13.7680005114526 0.590302323915542
13.7840005122125 0.837206775529426
13.8000005129725 1.09865916020939
13.8160005137324 0.882991722663832
13.8320005144924 0.508480829253534
13.8480005152523 0.462854248817562
13.8640005160123 0.596878805743095
13.8800005167723 0.516297924108607
13.8960005175322 0.756468154138183
13.9120005182922 0.420411048602103
13.9280005190521 0.437950843163362
13.9440005198121 0.388568653329869
13.9600005205721 0.495109578287916
13.976000521332 0.379798039096026
13.992000522092 0.224166380653855
14.0080005228519 0.727195333942686
14.0240005236119 0.785965971381491
14.0400005243719 0.508064834255174
14.0560005251318 0.10198236868501
14.0720005258918 0.377865063158199
14.0880005266517 0.577078911307546
14.1040005274117 0.617402226625958
14.1200005281717 0.558786818070817
14.1360005289316 0.538580322993615
14.1520005296916 0.770077622703775
14.1680005304515 0.395736339215302
14.1840005312115 0.257162778105754
14.2000005319715 0.411025366215152
14.2160005327314 0.392641439156906
14.2320005334914 0.756819977456088
14.2480005342513 0.829841401923728
14.2640005350113 0.373790671123208
14.2800005357712 0.541847220842929
14.2960005365312 1.15918169271866
14.3120005372912 0.805140121671966
14.3280005380511 0.570954354621778
14.3440005388111 0.437205508595757
14.360000539571 0.786586725035714
14.376000540331 0.879655465064471
14.392000541091 0.273212340893648
14.4080005418509 0.682813907390658
14.4240005426109 0.491566859415538
14.4400005433708 0.596879993735806
14.4560005441308 1.04641284829228
14.4720005448908 0.373545105419347
14.4880005456507 0.564364575189707
14.5040005464107 0.557226166816272
14.5200005471706 0.505584189651461
14.5360005479306 0.336426333363729
14.5520005486906 0.721312390005505
14.5680005494505 1.03523574887088
14.5840005502105 0.58816852126284
14.6000005509704 0.771608022790699
14.6160005517304 0.557027333828958
14.6320005524904 0.311881102503751
14.6480005532503 1.25616368081247
14.6640005540103 0.964377395388365
14.6800005547702 0.724008498242238
14.6960005555302 0.415439197700035
14.7120005562901 0.707825716861781
14.7280005570501 1.00175133598387
14.7440005578101 0.487737136424489
14.76000055857 0.443573273542389
14.77600055933 0.206383714018209
14.7920005600899 0.401840778361331
14.8080005608499 0.693094567451368
14.8240005616099 0.568978981203362
14.8400005623698 0.493275388148566
14.8560005631298 0.617468156952115
14.8720005638897 0.706697722145154
14.8880005646497 0.463677809308841
14.9040005654097 0.384648873340751
14.9200005661696 0.817840296189438
14.9360005669296 0.843053330026328
14.9520005676895 0.72005876331289
14.9680005684495 0.416099387802106
14.9840005692095 0.796212252159478
15.0000005699694 0.666574749621473
15.0160005707294 0.831209216947428
15.0320005714893 0.445263746914292
15.0480005722493 0.393982367870541
15.0640005730093 0.326607395421775
15.0800005737692 0.470277308756535
15.0960005745292 0.464932138069278
15.1120005752891 0.463457794614757
15.1280005760491 0.639895385083177
15.144000576809 0.69785845190821
15.160000577569 0.376702688947415
15.176000578329 0.675679770100776
15.1920005790889 0.5323534388995
15.2080005798489 0.637825749300003
15.2240005806088 0.59508289910937
15.2400005813688 0.603119090627176
15.2560005821288 0.515877271248731
15.2720005828887 0.886685489913707
15.2880005836487 0.573923047011732
15.3040005844086 0.389053277649738
15.3200005851686 0.836577682313648
15.3360005859286 0.752828988137044
15.3520005866885 0.532842037500967
15.3680005874485 0.491508707607705
15.3840005882084 0.810257016996323
15.4000005889684 0.353532534159965
15.4160005897284 0.361249843382994
15.4320005904883 0.401813464354014
15.4480005912483 0.747972377275106
15.4640005920082 0.457668512188154
15.4800005927682 0.668479917702483
15.4960005935281 0.470048406135565
15.5120005942881 0.937801794132509
15.5280005950481 0.760388495871123
15.544000595808 0.558025307862285
15.560000596568 0.844349759710272
15.5760005973279 0.837206175190004
15.5920005980879 0.867517702282267
15.6080005988479 0.79498427644083
15.6240005996078 0.326651356077067
15.6400006003678 0.289989772616707
15.6560006011277 0.444846054518993
15.6720006018877 0.584195234989765
15.6880006026477 0.656263900955205
15.7040006034076 0.607663307426646
15.7200006041676 0.171279485971668
15.7360006049275 0.540198032785661
15.7520006056875 0.485477169479211
15.7680006064475 0.809466853558164
15.7840006072074 0.849654140847598
15.8000006079674 0.516091151744731
15.8160006087273 0.678919155486553
15.8320006094873 0.639627274754089
15.8480006102473 0.530183664260029
15.8640006110072 0.452073086066098
15.8800006117672 0.500042502277068
15.8960006125271 0.829118110829667
15.9120006132871 0.703791639744927
15.928000614047 0.62898352820795
15.944000614807 0.651108300250143
15.960000615567 0.25813555583155
15.9760006163269 0.658328572050666
15.9920006170869 0.52504480848205
16.0080006178468 0.360911222600742
16.0240006186068 0.560701709777963
16.0400006193668 0.625505171306433
16.0560006201267 0.617655154700415
16.0720006208867 0.775819404054229
16.0880006216466 0.82930807402391
16.1040006224066 0.463940575682132
16.1200006231666 0.534612361351986
16.1360006239265 0.410618583948779
16.1520006246865 0.685129451141815
16.1680006254464 0.798500372076155
16.1840006262064 0.542067865334849
16.2000006269664 0.593861006722328
16.2160006277263 0.643666521200057
16.2320006284863 0.685446029862903
16.2480006292462 0.726063143289212
16.2640006300062 0.57663467973568
16.2800006307661 0.77335411101437
16.2960006315261 0.671810650150781
16.3120006322861 0.692847901575743
16.328000633046 0.924100659119337
16.344000633806 0.737772711539074
16.3600006345659 0.551172387395254
16.3760006353259 0.384615226417004
16.3920006360859 0.653665537658196
16.4080006368458 0.613093235514139
16.4240006376058 0.47286880592624
16.4400006383657 0.830929489515919
16.4560006391257 0.746486257922752
16.4720006398857 0.609453043581432
16.4880006406456 0.676004806148821
16.5040006414056 0.622350701258207
16.5200006421655 0.753438494235942
16.5360006429255 0.89282537595281
16.5520006436855 0.855043197393654
16.5680006444454 0.68083522204078
16.5840006452054 0.514814171259245
16.6000006459653 0.286262300916383
16.6160006467253 0.554960283008722
16.6320006474853 0.631063006746223
16.6480006482452 0.739603464887974
16.6640006490052 0.388934685696578
16.6800006497651 0.606373457310236
16.6960006505251 0.518781108808194
16.712000651285 0.57710452956278
16.728000652045 0.390107886597452
16.744000652805 0.598469584842638
16.7600006535649 0.3702760662275
16.7760006543249 0.20557542464843
16.7920006550848 0.746921650219797
16.8080006558448 0.542842862006141
16.8240006566048 0.657216023263564
16.8400006573647 0.832041654997925
16.8560006581247 0.475018902194291
16.8720006588846 0.496178362102929
16.8880006596446 0.443370847144013
16.9040006604046 0.452116361948712
16.9200006611645 0.467574831700417
16.9360006619245 0.44025948158284
16.9520006626844 0.451055776823178
16.9680006634444 0.341077995048114
16.9840006642044 0.486038177811242
17.0000006649643 0.438689707477616
17.0160006657243 0.680302650603086
17.0320006664842 0.517399261309051
17.0480006672442 0.423519398314948
17.0640006680042 0.794945785183974
17.0800006687641 0.879396030179617
17.0960006695241 0.764997887648661
17.112000670284 0.44350619071819
17.128000671044 0.308303484482025
17.1440006718039 0.586104085089785
17.1600006725639 0.793607710911779
17.1760006733239 0.727021574641707
17.1920006740838 0.655321092476023
17.2080006748438 0.493153260351306
17.2240006756037 0.768000356761773
17.2400006763637 0.789296319241817
17.2560006771237 0.824284903206276
17.2720006778836 0.676866393949806
17.2880006786436 0.663058341061796
17.3040006794035 0.817492205662825
17.3200006801635 0.720068856958365
17.3360006809235 0.495823675854894
17.3520006816834 0.648999600408001
17.3680006824434 0.656556915390925
17.3840006832033 0.643093276702228
17.4000006839633 0.534032508652444
17.4160006847233 0.47100422515986
17.4320006854832 0.571776546204561
17.4480006862432 0.820681395417433
17.4640006870031 0.923822286542167
17.4800006877631 0.84516062687709
17.4960006885231 0.674037818246335
17.512000689283 0.708014561201245
17.528000690043 0.949789359208095
17.5440006908029 0.844886598895348
17.5600006915629 0.941429043301879
17.5760006923228 1.0858848741952
17.5920006930828 1.17497480573746
17.6080006938428 1.31989458617528
17.6240006946027 1.04743716882133
17.6400006953627 1.42643230384659
17.6560006961226 1.49012587589624
17.6720006968826 1.65156308899696
17.6880006976426 2.00684437597222
17.7040006984025 1.95229103706701
17.7200006991625 2.0050794566506
17.7360006999224 1.9646280666207
17.7520007006824 1.98708617825936
17.7680007014424 1.83904905563546
17.7840007022023 1.78335998978496
17.8000007029623 1.40727828794315
17.8160007037222 1.50700513749182
17.8320007044822 1.35779317811679
17.8480007052422 0.73304803472771
17.8640007060021 0.822019355531701
17.8800007067621 0.942204390303095
17.896000707522 0.997819376102084
17.912000708282 0.829047747728279
17.9280007090419 0.679105137192079
17.9440007098019 0.880483035269372
17.9600007105619 1.05062885078986
17.9760007113218 0.909197128327154
17.9920007120818 0.920389502300741
18.0080007128417 1.0552384105277
18.0240007136017 0.848623070491
18.0400007143617 0.464276754057457
18.0560007151216 0.247745143703503
18.0720007158816 0.796426225060072
18.0880007166415 0.536133170188632
18.1040007174015 0.464783983869221
18.1200007181615 0.511998754641438
18.1360007189214 0.775042724358829
18.1520007196814 0.778864988285491
18.1680007204413 0.754601227608008
18.1840007212013 0.663994018631675
18.2000007219613 0.887189567762365
18.2160007227212 0.640710632522959
18.2320007234812 0.82964078183462
18.2480007242411 0.961515042977483
18.2640007250011 0.825739374868798
18.2800007257611 0.882264116449934
18.296000726521 0.753546049395841
18.312000727281 0.540173359711245
18.3280007280409 0.194762121920697
18.3440007288009 0.687486016985501
18.3600007295608 0.908395404161326
18.3760007303208 0.883431260628108
18.3920007310808 0.374502674148478
18.4080007318407 0.852428573477131
18.4240007326007 0.517688286765361
18.4400007333606 0.72790768976518
18.4560007341206 0.609521843119389
18.4720007348806 0.676675617986628
18.4880007356405 0.432334676846755
18.5040007364005 0.861262288865928
18.5200007371604 0.264419695197928
18.5360007379204 0.459288483074183
18.5520007386804 0.588795876742528
18.5680007394403 0.384211127603554
18.5840007402003 0.641118782506498
18.6000007409602 0.602813256009716
18.6160007417202 0.489258241158705
18.6320007424802 0.676915581010394
18.6480007432401 0.616057899746402
18.6640007440001 0.385597582871728
18.68000074476 0.531984399409128
18.69600074552 0.37963339315696
18.71200074628 0.786723752408331
18.7280007470399 0.658711776229314
18.7440007477999 0.431822947838778
18.7600007485598 0.751898588409973
18.7760007493198 0.727538471256208
18.7920007500797 0.554872908663444
18.8080007508397 0.582646810148432
18.8240007515997 0.603510338091438
18.8400007523596 0.356244202749933
18.8560007531196 0.488770766055249
18.8720007538795 0.533454930907277
18.8880007546395 0.61991815442586
18.9040007553995 0.757814283092424
18.9200007561594 0.568183139513066
18.9360007569194 0.493986787483261
18.9520007576793 0.53792197635407
18.9680007584393 0.554022703299752
18.9840007591993 0.421549207604818
19.0000007599592 0.407265826900587
19.0160007607192 0.382524428472305
19.0320007614791 0.444214787145334
19.0480007622391 0.446746144855029
19.0640007629991 0.520201114588348
19.080000763759 0.710107723517106
19.096000764519 0.630455443402886
19.1120007652789 0.292501184140961
19.1280007660389 0.288769716321915
19.1440007667989 0.534543676454425
19.1600007675588 0.346616840968278
19.1760007683188 0.861755865010063
19.1920007690787 0.474434082818401
19.2080007698387 0.876537530463713
19.2240007705986 0.637188112472315
19.2400007713586 0.631686216179852
19.2560007721186 0.913142823108583
19.2720007728785 1.08787139365382
19.2880007736385 0.679164011865701
19.3040007743984 0.549190684481546
19.3200007751584 0.543895699035766
19.3360007759184 0.618253304187722
19.3520007766783 0.871243303636692
19.3680007774383 0.639221949111077
19.3840007781982 0.727978829147705
19.4000007789582 0.982789010820841
19.4160007797182 1.18506159289689
19.4320007804781 0.872112068075276
19.4480007812381 1.11628909764535
19.464000781998 1.22309183276029
19.480000782758 1.33032204676438
19.496000783518 1.2179605616204
19.5120007842779 1.42073725220599
19.5280007850379 1.57395150837988
19.5440007857978 1.62771012876974
19.5600007865578 1.89383208205054
19.5760007873177 2.14926989926848
19.5920007880777 1.81227500932534
19.6080007888377 2.2963917150812
19.6240007895976 2.42122762119931
19.6400007903576 2.64218850330693
19.6560007911175 3.12346333462006
19.6720007918775 3.48529627361445
19.6880007926375 4.4097813521203
19.7040007933974 4.57073043889117
19.7200007941574 5.11622961356201
19.7360007949173 5.53643728782882
19.7520007956773 5.49985987598498
19.7680007964373 5.81080595871453
19.7840007971972 6.51375816946631
19.8000007979572 6.66050540211046
19.8160007987171 6.98353954019173
19.8320007994771 7.20631694552274
19.8480008002371 7.03684782081305
19.864000800997 6.93890716196056
19.880000801757 6.48979046101127
19.8960008025169 6.58704159080497
19.9120008032769 6.34576772901758
19.9280008040369 5.91218383118556
19.9440008047968 5.55209607811989
19.9600008055568 5.93237612120247
19.9760008063167 5.91562441091909
19.9920008070767 5.14743658611973
20.0080008078366 5.05812147956277
20.0240008085966 4.93934215237162
20.0400008093566 4.92657060039077
20.0560008101165 4.24621502457689
20.0720008108765 4.28570257337823
20.0880008116364 4.30917135450713
20.1040008123964 4.40168792793936
20.1200008131564 4.37349935384309
20.1360008139163 4.24629184860834
20.1520008146763 4.30451972370941
20.1680008154362 4.28686879469534
20.1840008161962 4.53537263660676
20.2000008169562 4.62412897022818
20.2160008177161 4.32555847821115
20.2320008184761 4.05697368647706
20.248000819236 4.00597070976916
20.264000819996 3.93694934087312
20.280000820756 4.00333257012053
20.2960008215159 3.78291366514877
20.3120008222759 3.89400866429019
20.3280008230358 4.01385438473945
20.3440008237958 4.08748244142291
20.3600008245558 4.13865456949475
20.3760008253157 3.71966515059767
20.3920008260757 3.48256817329353
20.4080008268356 3.76806196056375
20.4240008275956 3.80000881638857
20.4400008283555 3.40969989327544
20.4560008291155 3.26253525532025
20.4720008298755 3.43709565670195
20.4880008306354 2.96522115968175
20.5040008313954 3.27899081170523
20.5200008321553 3.52559328031436
20.5360008329153 3.7353525027796
20.5520008336753 3.54013593297167
20.5680008344352 3.55297473983148
20.5840008351952 3.435666327886
20.6000008359551 3.56379367468532
20.6160008367151 3.35465446378841
20.6320008374751 3.56015068551538
20.648000838235 4.12784407450793
20.664000838995 4.20359646657565
20.6800008397549 4.74934467769609
20.6960008405149 5.02658352730749
20.7120008412749 5.39085800239511
20.7280008420348 6.45397759521724
20.7440008427948 8.22554726766295
20.7600008435547 10.2204228804825
20.7760008443147 13.8305094104791
20.7920008450747 19.001863250709
20.8080008458346 24.3240228998382
20.8240008465946 27.0375241715119
20.8400008473545 23.6233471578497
20.8560008481145 18.9140722420971
20.8720008488744 15.8851008426293
20.8880008496344 13.0577915951992
20.9040008503944 8.87038540961126
20.9200008511543 6.10119452904667
20.9360008519143 4.68608287158654
20.9520008526742 4.50016537631208
20.9680008534342 4.03003186980473
20.9840008541942 3.67586712359229
21.0000008549541 3.50607829574296
21.0160008557141 3.21773257612628
21.032000856474 3.03718281372321
21.048000857234 2.91442411084667
21.064000857994 3.04997722084515
21.0800008587539 2.88827973330229
21.0960008595139 2.79492618452688
21.1120008602738 2.85380762410461
21.1280008610338 2.51578213553266
21.1440008617938 2.43053714787226
21.1600008625537 2.43608810104505
21.1760008633137 2.93345917236959
21.1920008640736 2.83210328011072
21.2080008648336 2.6331690614367
21.2240008655935 2.42363577245566
21.2400008663535 2.23167191664946
21.2560008671135 1.99339824726643
21.2720008678734 2.32562586894531
21.2880008686334 2.52108565334853
21.3040008693933 2.54961108365331
21.3200008701533 2.47995999050088
21.3360008709133 2.71207010147709
21.3520008716732 2.24945501820646
21.3680008724332 2.3418462695833
21.3840008731931 2.64439515942966
21.4000008739531 2.47557568917218
21.4160008747131 2.20226694082213
21.432000875473 2.93157273093854
21.448000876233 2.73181505564766
21.4640008769929 2.65118131943586
21.4800008777529 2.69162521222415
21.4960008785129 2.51332596416446
21.5120008792728 2.50814270458599
21.5280008800328 2.51750423031852
21.5440008807927 2.11180586114598
21.5600008815527 2.45885153811046
21.5760008823127 2.02676175428191
21.5920008830726 1.86642248895896
21.6080008838326 2.28494541146195
21.6240008845925 1.89980397349992
21.6400008853525 2.40076779166999
21.6560008861124 2.0569459472255
21.6720008868724 1.887206784277
21.6880008876324 2.30012228643896
21.7040008883923 1.75106047961563
21.7200008891523 1.70096366554621
21.7360008899122 1.83694492568138
21.7520008906722 1.80844135029863
21.7680008914322 1.66769160330118
21.7840008921921 2.00772541506855
21.8000008929521 2.05736516439438
21.816000893712 2.33379692942475
21.832000894472 1.91628507098529
21.848000895232 1.70719672710516
21.8640008959919 1.94221788858099
21.8800008967519 2.13331827393006
21.8960008975118 2.13979828600434
21.9120008982718 2.09095866005822
21.9280008990318 2.09884923598064
21.9440008997917 1.99354804911434
21.9600009005517 2.30471543390925
21.9760009013116 2.02388578183473
21.9920009020716 2.2487919457949
22.0080009028316 2.05374908072714
22.0240009035915 1.44001118131407
22.0400009043515 1.39598465099416
22.0560009051114 1.51958163329983
22.0720009058714 1.60561787559688
22.0880009066313 1.65689080300021
22.1040009073913 1.46043255845174
22.1200009081513 1.63893927403064
22.1360009089112 1.49018196926261
22.1520009096712 1.11569403675127
22.1680009104311 1.64171615199536
22.1840009111911 0.973908519309728
22.2000009119511 1.04505353285136
22.216000912711 1.63154894270292
22.232000913471 1.56215847333746
22.2480009142309 1.62841415890269
22.2640009149909 1.52106914609456
22.2800009157509 1.42296157937058
22.2960009165108 1.34628632176086
22.3120009172708 1.13594555796052
22.3280009180307 1.19760243094635
22.3440009187907 1.25115352065648
22.3600009195507 1.30620051283154
22.3760009203106 1.56991230367294
22.3920009210706 1.35281772249827
22.4080009218305 1.3061004121492
22.4240009225905 1.18236441125097
22.4400009233504 1.55344083832233
22.4560009241104 1.43537548642048
22.4720009248704 1.17279143154847
22.4880009256303 1.16778126547173
22.5040009263903 1.24023943038303
22.5200009271502 1.14208131349445
22.5360009279102 0.993311807835618
22.5520009286702 1.30837087576537
22.5680009294301 1.17399785806054
22.5840009301901 1.14867877446706
22.60000093095 1.03020769275909
22.61600093171 0.931739857143774
22.63200093247 0.868854277196623
22.6480009332299 1.12669219498771
22.6640009339899 1.55365718531397
22.6800009347498 1.62438397890481
22.6960009355098 1.17240435681428
22.7120009362698 1.1168714706036
22.7280009370297 1.07935197975563
22.7440009377897 1.18811338075028
22.7600009385496 1.24648471972156
22.7760009393096 1.53583279850384
22.7920009400696 1.53518132129771
22.8080009408295 0.972073201153543
22.8240009415895 1.27533805453276
22.8400009423494 1.47933125232337
22.8560009431094 1.44632969025886
22.8720009438693 1.47495542887306
22.8880009446293 1.43360154789265
22.9040009453893 1.50533226079243
22.9200009461492 1.2565417613907
22.9360009469092 1.28455476701727
22.9520009476691 1.44525334256811
22.9680009484291 1.06079150167709
22.9840009491891 1.07696332332137
23.000000949949 1.05655258129837
23.016000950709 1.36113473897066
23.0320009514689 1.39734737855344
23.0480009522289 1.3916140829566
23.0640009529889 1.18030529361591
23.0800009537488 1.08066595406766
23.0960009545088 0.74804780437025
23.1120009552687 0.944946397121246
23.1280009560287 1.29337956832629
23.1440009567887 1.46677774017824
23.1600009575486 1.32094685709931
23.1760009583086 0.772608107898308
23.1920009590685 0.772072157113818
23.2080009598285 0.948032934865159
23.2240009605885 1.04334739513695
23.2400009613484 0.819535640994219
23.2560009621084 0.890403491960661
23.2720009628683 0.65628133637924
23.2880009636283 1.21479427584545
23.3040009643882 1.17344876682227
23.3200009651482 1.0522368173406
23.3360009659082 1.39747673682643
23.3520009666681 1.27659958996404
23.3680009674281 1.10919954353678
23.384000968188 1.24205432093755
23.400000968948 1.44673538400554
23.416000969708 1.29397103679431
23.4320009704679 1.297071262551
23.4480009712279 1.06896411183019
23.4640009719878 1.21057859967821
23.4800009727478 1.08976711310003
23.4960009735078 1.1642138420065
23.5120009742677 1.29817920144032
23.5280009750277 1.06542437868544
23.5440009757876 1.09254525785296
23.5600009765476 1.08833576920303
23.5760009773076 0.955727335066627
23.5920009780675 1.16020918579577
23.6080009788275 1.08323181418263
23.6240009795874 1.1739283696838
23.6400009803474 1.10951993640849
23.6560009811074 1.1728232822759
23.6720009818673 0.972568973729908
23.6880009826273 1.24879391378272
23.7040009833872 1.33439692933087
23.7200009841472 1.26575555940857
23.7360009849071 1.27233880276077
23.7520009856671 0.939045443400238
23.7680009864271 0.922612601743285
23.784000987187 1.38499444789121
23.800000987947 1.4072251607298
23.8160009887069 0.97703404832167
23.8320009894669 1.18847310857514
23.8480009902269 1.62733364427588
23.8640009909868 0.90827292915177
23.8800009917468 1.15819990556787
23.8960009925067 1.33353412766064
23.9120009932667 1.15532267162591
23.9280009940267 1.25413892169749
23.9440009947866 1.1180256669009
23.9600009955466 1.34766926953069
23.9760009963065 1.30118853273349
23.9920009970665 1.12600641933517
24.0080009978265 1.11131777908934
24.0240009985864 1.22963005246012
24.0400009993464 1.19760005409833
24.0560010001063 1.48146594942183
24.0720010008663 1.39783959929957
24.0880010016262 1.03599941115769
24.1040010023862 1.00733017452729
24.1200010031462 1.15294229447359
24.1360010039061 1.01400831597923
24.1520010046661 1.25338954997687
24.168001005426 1.34132915205993
24.184001006186 1.05152248837807
24.200001006946 1.15914019390109
24.2160010077059 1.25232681118643
24.2320010084659 1.34508040844565
24.2480010092258 1.26851929324415
24.2640010099858 1.41703311015097
24.2800010107458 1.42806466493852
24.2960010115057 1.66500369264907
24.3120010122657 1.36609133548526
24.3280010130256 1.11037715611171
24.3440010137856 1.42653976558231
24.3600010145456 1.48029637396125
24.3760010153055 1.42148541192793
24.3920010160655 1.57020002448362
24.4080010168254 1.30454055395376
24.4240010175854 1.69863359462535
24.4400010183454 1.56893714156794
24.4560010191053 1.40546328384279
24.4720010198653 1.76267001432921
24.4880010206252 1.77438186316943
24.5040010213852 1.4630555557561
24.5200010221451 1.6474860542404
24.5360010229051 2.00281869121482
24.5520010236651 2.20354785879081
24.568001024425 2.05986433126663
24.584001025185 1.93735415181536
24.6000010259449 2.26622159601629
24.6160010267049 2.10397252009025
24.6320010274649 2.40401028019977
24.6480010282248 2.51213464619691
24.6640010289848 2.83033785887268
24.6800010297447 3.20131493628588
24.6960010305047 3.68245437516784
24.7120010312647 4.17930087480726
24.7280010320246 4.40282356033591
24.7440010327846 5.04634779688213
24.7600010335445 6.08950030375908
24.7760010343045 6.99941419706825
24.7920010350645 8.02564842452125
24.8080010358244 9.64004619850272
24.8240010365844 10.1519312590847
24.8400010373443 10.3493721464685
24.8560010381043 9.9181130167991
24.8720010388643 9.47055275973318
24.8880010396242 8.30168029473675
24.9040010403842 7.71122041906076
24.9200010411441 6.60806965442994
24.9360010419041 5.9173065880695
24.952001042664 5.54358422994816
24.968001043424 4.73319198089947
24.984001044184 4.5133037831279
25.0000010449439 4.2742735748264
25.0160010457039 3.97622921997631
25.0320010464638 3.90810279382235
25.0480010472238 3.58425512061098
25.0640010479838 3.42496973243557
25.0800010487437 3.06180761760723
25.0960010495037 3.08341052887364
25.1120010502636 3.2043926535027
25.1280010510236 2.95926176542801
25.1440010517836 3.21806510925023
25.1600010525435 3.09147031869065
25.1760010533035 3.24187041940327
25.1920010540634 3.13191609598604
25.2080010548234 2.8799941303378
25.2240010555834 3.45355077617942
25.2400010563433 3.97640299004623
25.2560010571033 4.12299015922987
25.2720010578632 3.88770738376476
25.2880010586232 3.57682606563821
25.3040010593832 3.2546764698008
25.3200010601431 3.55559864846869
25.3360010609031 3.05464057351942
25.352001061663 2.59958066315496
25.368001062423 2.63150535107987
25.3840010631829 2.68272336469805
25.4000010639429 2.33246496092829
25.4160010647029 2.19213452616095
25.4320010654628 2.41937684942727
25.4480010662228 2.54866062487667
25.4640010669827 2.49216819579717
25.4800010677427 1.99531337146983
25.4960010685027 1.89010713781131
25.5120010692626 1.89844284150124
25.5280010700226 2.00789759001956
25.5440010707825 1.79164559152703
25.5600010715425 1.8905330133384
25.5760010723025 1.74289427420076
25.5920010730624 1.86576747187399
25.6080010738224 1.59042142792415
25.6240010745823 1.73731406578539
25.6400010753423 1.80324079281188
25.6560010761023 1.36582212529871
25.6720010768622 1.63233965386916
25.6880010776222 1.56866481606039
25.7040010783821 2.150738320871
25.7200010791421 1.74998521572278
25.736001079902 1.79617652775758
25.752001080662 1.61016059406782
25.768001081422 1.81974252372611
25.7840010821819 1.73418001962525
25.8000010829419 1.45559997050192
25.8160010837018 1.3966084858108
25.8320010844618 1.56774565367529
25.8480010852218 1.66939373609753
25.8640010859817 1.59364343401575
25.8800010867417 1.56623932531017
25.8960010875016 1.63897376864593
25.9120010882616 1.90099182549849
25.9280010890216 1.33342428241292
25.9440010897815 1.39650764608601
25.9600010905415 1.89082217271789
25.9760010913014 2.06858637676352
25.9920010920614 1.53679159502096
26.0080010928214 1.83369419806636
26.0240010935813 1.62837536085653
26.0400010943413 1.60845431716849
26.0560010951012 1.82678363943726
26.0720010958612 2.01107708014287
26.0880010966212 2.16678228779803
26.1040010973811 1.88688962734266
26.1200010981411 1.80992819042816
26.136001098901 1.85311602090141
26.152001099661 2.19241392056707
26.1680011004209 2.39738411975444
26.1840011011809 2.16067073912583
26.2000011019409 1.78063141148265
26.2160011027008 2.29867112365777
26.2320011034608 2.83449869336897
26.2480011042207 2.85917260316317
26.2640011049807 3.04628468050958
26.2800011057407 3.20363267741279
26.2960011065006 3.43060166018769
26.3120011072606 3.47160106471478
26.3280011080205 3.88119870283105
26.3440011087805 4.24728070678646
26.3600011095405 4.08599308645631
26.3760011103004 4.38300011022245
26.3920011110604 5.02170664170654
26.4080011118203 5.48808197850151
26.4240011125803 6.32014987058682
26.4400011133403 7.37491021370019
26.4560011141002 8.81628875356238
26.4720011148602 9.98208931063876
26.4880011156201 13.0526863705728
26.5040011163801 17.2363419875266
26.5200011171401 23.8245905083969
26.5360011179 33.8002395550814
26.55200111866 49.0752864570123
26.5680011194199 70.9533034709209
26.5840011201799 96.7714885076546
26.6000011209398 111.057190372602
26.6160011216998 97.5347902409366
26.6320011224598 74.1913590167965
26.6480011232197 65.5576221052202
26.6640011239797 64.2674547479193
26.6800011247396 54.236130023227
26.6960011254996 34.7015591016986
26.7120011262596 21.7584986664936
26.7280011270195 16.1828205598616
26.7440011277795 12.9318728777042
26.7600011285394 10.846326873293
26.7760011292994 9.19756399699743
26.7920011300594 7.82462453565929
26.8080011308193 7.0195435131475
26.8240011315793 6.21266414999813
26.8400011323392 5.55115763129828
26.8560011330992 4.67414075182457
26.8720011338592 4.43301741623061
26.8880011346191 3.68596685515581
26.9040011353791 2.92590874777304
26.920001136139 2.75357344825818
26.936001136899 2.49447899689802
26.952001137659 2.28947028651977
26.9680011384189 2.28397938464734
26.9840011391789 2.34516271199571
27.0000011399388 1.98027082373994
27.0160011406988 2.14000982447572
27.0320011414587 2.2799046816425
27.0480011422187 2.0082168494025
27.0640011429787 2.14841995216683
27.0800011437386 1.88865432410945
27.0960011444986 2.00093140688264
27.1120011452585 1.71888021423831
27.1280011460185 1.47447403519068
27.1440011467785 1.71698037997737
27.1600011475384 1.58222610658152
27.1760011482984 1.63182395157807
27.1920011490583 1.87723165730626
27.2080011498183 1.39133505036039
27.2240011505783 1.27434652219914
27.2400011513382 1.35863266378368
27.2560011520982 1.4996576570742
27.2720011528581 1.42558416873498
27.2880011536181 1.84448052796796
27.3040011543781 1.70154119121798
27.320001155138 1.51168328747774
27.336001155898 1.87548668744746
27.3520011566579 2.06573942711858
27.3680011574179 1.54630390282004
27.3840011581778 2.31532059177375
27.4000011589378 2.73378878697192
27.4160011596978 2.42256583063535
27.4320011604577 2.27962896034194
27.4480011612177 2.3400991908967
27.4640011619776 2.04713310437687
27.4800011627376 2.2197947519714
27.4960011634976 2.03936468396422
27.5120011642575 1.41564909087761
27.5280011650175 1.40911710859461
27.5440011657774 1.41534520110024
27.5600011665374 1.16872095815724
27.5760011672974 1.18504326264639
27.5920011680573 1.12168998634005
27.6080011688173 1.3100323531919
27.6240011695772 1.65379204103704
27.6400011703372 2.11936302791643
27.6560011710972 1.66587431030024
27.6720011718571 1.80567530766764
27.6880011726171 1.56313331251924
27.704001173377 1.82375177517182
27.720001174137 2.19336224398405
27.7360011748969 1.85440460703682
27.7520011756569 1.66857689266075
27.7680011764169 2.17480861906676
27.7840011771768 1.91803648310654
27.8000011779368 2.14676206188915
27.8160011786967 2.06698962639521
27.8320011794567 1.96114028474767
27.8480011802167 1.90594712913459
27.8640011809766 2.09148728379528
27.8800011817366 2.21754464230634
27.8960011824965 2.38559567971901
27.9120011832565 2.31934286204318
27.9280011840165 1.86884283942798
27.9440011847764 2.00044226874444
27.9600011855364 1.75029780279794
27.9760011862963 1.88690103732485
27.9920011870563 1.53972182350258
28.0080011878163 1.69512133551826
28.0240011885762 1.51444983021654
28.0400011893362 1.03224846353723
28.0560011900961 1.27121505871673
28.0720011908561 1.03387914069343
28.0880011916161 1.01853124376868
28.104001192376 1.39808777039298
28.120001193136 1.0173881333789
28.1360011938959 1.09626462829748
28.1520011946559 1.06933170564793
28.1680011954158 1.06033596550609
28.1840011961758 0.789244420986997
28.2000011969358 1.11249378781009
28.2160011976957 1.47741065232407
28.2320011984557 1.01850352506564
28.2480011992156 1.15564704742383
28.2640011999756 1.29241332551752
28.2800012007356 1.04399999445923
28.2960012014955 0.990160532788817
28.3120012022555 0.996788384516172
28.3280012030154 1.00795903828512
28.3440012037754 0.774912238098332
28.3600012045354 0.69245549706438
28.3760012052953 0.738157423953585
28.3920012060553 0.90966969940883
28.4080012068152 0.678390444488118
28.4240012075752 0.551060046634349
28.4400012083352 0.864347036390895
28.4560012090951 0.839818043474977
28.4720012098551 0.704699811222164
28.488001210615 0.708294865705489
28.504001211375 0.639058507201558
28.520001212135 0.351843661995799
28.5360012128949 0.922023779471044
28.5520012136549 0.712558435880701
28.5680012144148 0.603318178450191
28.5840012151748 0.631449819232421
28.6000012159347 0.924590059983068
28.6160012166947 0.735803088852204
28.6320012174547 0.73828848465044
28.6480012182146 0.748046809923597
28.6640012189746 0.672717900044551
28.6800012197345 0.360360000093017
28.6960012204945 0.690609816155264
28.7120012212545 0.81611983487695
28.7280012220144 0.809505087353808
28.7440012227744 0.923690794550707
28.7600012235343 0.674533345415802
28.7760012242943 0.690972384933705
28.7920012250543 1.02292901953466
28.8080012258142 0.884916001902508
28.8240012265742 0.999405616564795
28.8400012273341 0.628042643326106
28.8560012280941 0.804273204837998
28.8720012288541 0.905444566367358
28.888001229614 0.577174798803756
28.904001230374 0.74066361428787
28.9200012311339 0.610444247930423
28.9360012318939 0.736019757150393
28.9520012326538 0.720380596264011
28.9680012334138 0.888595376659634
28.9840012341738 0.866700499850475
29.0000012349337 1.10127758122529
29.0160012356937 1.17831679115068
29.0320012364536 1.18036461480652
29.0480012372136 1.06274113479721
29.0640012379736 1.1450828649036
29.0800012387335 1.00388458244546
29.0960012394935 0.911702088652211
29.1120012402534 1.11360221140251
29.1280012410134 1.15228002349843
29.1440012417734 0.912866396050648
29.1600012425333 0.710206164745814
29.1760012432933 0.881710776452987
29.1920012440532 0.829440213655202
29.2080012448132 0.758803668972073
29.2240012455732 0.77821858922477
29.2400012463331 0.509065532649052
29.2560012470931 0.431299978478213
29.272001247853 0.633306531450318
29.288001248613 0.795109084862848
29.304001249373 0.423505380288322
29.3200012501329 0.440373277659932
29.3360012508929 0.443066489108239
29.3520012516528 0.681928036690948
29.3680012524128 0.547141708810289
29.3840012531727 0.539680225860945
29.4000012539327 0.347191345500751
29.4160012546927 0.283544858235312
29.4320012554526 0.625998942590805
29.4480012562126 0.786656892456267
29.4640012569725 0.354709488667577
29.4800012577325 0.666746049388339
29.4960012584925 0.745866518808309
29.5120012592524 0.568383793538977
29.5280012600124 0.249215835327556
29.5440012607723 0.481127298837772
29.5600012615323 0.52412474204964
29.5760012622923 0.467825747663268
29.5920012630522 0.621525875765764
29.6080012638122 0.608601599918084
29.6240012645721 0.66048231703689
29.6400012653321 0.537642528641716
29.6560012660921 0.693344273122029
29.672001266852 0.850643776721589
29.688001267612 0.787990138517064
29.7040012683719 1.07472874658635
29.7200012691319 0.791197332122933
29.7360012698919 0.806188517965039
29.7520012706518 0.898657061355497
29.7680012714118 1.01686013689647
29.7840012721717 0.717398920607732
29.8000012729317 0.801099093266118
29.8160012736916 1.1204811797613
29.8320012744516 1.37201957250321
29.8480012752116 1.177684732214
29.8640012759715 0.996810097774109
29.8800012767315 1.07763845758382
29.8960012774914 1.14992867249468
29.9120012782514 0.816466581343524
29.9280012790114 0.807661075148958
29.9440012797713 0.962494072078788
29.9600012805313 0.579536572490758
29.9760012812912 0.498195439170233
29.9920012820512 0.730123648104379
30.0080012828112 0.664902898369165
30.0240012835711 1.00885740379922
30.0400012843311 0.730617585637791
30.056001285091 0.537024308737994
30.072001285851 0.3445597595828
30.088001286611 1.04488172073114
30.1040012873709 0.924893300435403
30.1200012881309 0.67171147653042
30.1360012888908 0.782421841395541
30.1520012896508 0.73837113701271
30.1680012904107 0.770928663905694
30.1840012911707 0.673353764301726
30.2000012919307 0.830910162509766
30.2160012926906 0.558457692571811
30.2320012934506 0.58557039072772
30.2480012942105 0.789829944431101
30.2640012949705 0.531173196420329
30.2800012957305 0.576704812032268
30.2960012964904 0.21158306329592
30.3120012972504 0.527681920826526
30.3280012980103 0.841154447519123
30.3440012987703 1.01489856594984
30.3600012995303 0.657700580701914
30.3760013002902 0.616949862749177
30.3920013010502 1.03278455503414
30.4080013018101 0.840494520052394
30.4240013025701 0.917725818371879
30.4400013033301 1.17211576071544
30.45600130409 1.13021021044453
30.47200130485 0.842709536120685
30.4880013056099 0.622233818330804
30.5040013063699 1.02191148839043
30.5200013071299 0.907900400658312
30.5360013078898 0.716001552087922
30.5520013086498 0.802254172390279
30.5680013094097 0.54312369140461
30.5840013101697 0.220357668635754
30.6000013109296 0.704090868928801
30.6160013116896 0.770822308105857
30.6320013124496 0.620371858182452
30.6480013132095 0.585188900155639
30.6640013139695 0.597964821289846
30.6800013147294 0.494567031959804
30.6960013154894 0.747181106414653
30.7120013162494 0.536929917253397
30.7280013170093 0.666394996067147
30.7440013177693 0.421668007505839
30.7600013185292 0.551737480087578
30.7760013192892 0.769486532016575
30.7920013200492 0.644363643693199
30.8080013208091 0.571285147291218
30.8240013215691 0.742221406839576
30.840001322329 0.460050709479723
30.856001323089 0.485942865005335
30.872001323849 0.609306022275881
30.8880013246089 0.707076835243411
30.9040013253689 0.400781159530279
30.9200013261288 0.454698343597195
30.9360013268888 0.57118096556419
30.9520013276488 0.796864809198105
30.9680013284087 0.776281195424084
30.9840013291687 0.771786287792954
31.0000013299286 0.670374173028999
31.0160013306886 0.613559358260177
31.0320013314485 0.519413313539551
31.0480013322085 0.320804931531758
31.0640013329685 0.807643174232836
31.0800013337284 0.612681166563765
31.0960013344884 0.801645420822704
31.1120013352483 0.908709557264107
31.1280013360083 0.907033582412879
31.1440013367683 1.0284138556167
31.1600013375282 0.932315053240403
31.1760013382882 1.08097723761953
31.1920013390481 1.09985337207361
31.2080013398081 0.716870887221935
31.2240013405681 0.785819748873666
31.240001341328 0.71651043692987
31.256001342088 1.00223988349025
31.2720013428479 0.808448541101
31.2880013436079 0.793423944610148
31.3040013443679 0.960856509744231
31.3200013451278 0.838314693099119
31.3360013458878 0.807069902657583
31.3520013466477 0.991675746253714
31.3680013474077 0.768637916820449
31.3840013481677 0.996562698112518
31.4000013489276 0.899962465261813
31.4160013496876 0.682068286006197
31.4320013504475 0.864553687647465
31.4480013512075 0.754229204883141
31.4640013519674 0.596126100309802
31.4800013527274 0.725167032717623
31.4960013534874 0.696180802362927
31.5120013542473 0.542196699928922
31.5280013550073 0.670655269157488
31.5440013557672 0.747152024906004
31.5600013565272 0.721391591646687
31.5760013572872 0.54389631105719
31.5920013580471 0.816187648723123
31.6080013588071 0.773731919170345
31.624001359567 0.821414310183012
31.640001360327 0.74016888765693
31.656001361087 0.636415788446713
31.6720013618469 0.483329775186719
31.6880013626069 0.74320547273513
31.7040013633668 0.580628819689053
31.7200013641268 0.388194598764744
31.7360013648868 0.301464574703191
31.7520013656467 0.599566713103855
31.7680013664067 0.877732089681182
31.7840013671666 0.723021895152276
31.8000013679266 0.654977305925491
31.8160013686865 0.407355702671048
31.8320013694465 0.484251536290159
31.8480013702065 0.562923840917465
31.8640013709664 0.306032292534267
31.8800013717264 0.626610503946109
31.8960013724863 0.728632619109423
31.9120013732463 0.513059586110162
31.9280013740063 0.829501831539692
31.9440013747662 0.832308970647863
31.9600013755262 0.810698999914918
31.9760013762861 1.02689864729135
31.9920013770461 0.792469577866271
32.0080013778061 0.615294836110186
32.024001378566 0.990336367763786
32.040001379326 0.819624876211564
32.0560013800859 0.293953351372227
32.0720013808459 0.705525733990195
32.0880013816059 1.04821852772427
32.1040013823658 0.975666705954398
32.1200013831258 0.683313732689705
32.1360013838857 0.656719308340628
32.1520013846457 1.00491805490699
32.1680013854057 0.576388827147681
32.1840013861656 0.617977765152871
32.2000013869256 0.518227800158692
32.2160013876855 0.619872475652028
32.2320013884455 0.451285985956572
32.2480013892054 0.468787919642576
32.2640013899654 0.793435131492186
32.2800013907254 0.665968927615475
32.2960013914853 0.594228761686886
32.3120013922453 0.498740007681168
32.3280013930052 0.45541952558814
32.3440013937652 0.459250854659114
32.3600013945252 0.491595246291388
32.3760013952851 0.525909604031424
32.3920013960451 0.426809607569762
32.408001396805 0.299384147053781
32.424001397565 0.461527729996068
32.440001398325 0.537298719698385
32.4560013990849 0.722424142560277
32.4720013998449 0.335429869808771
32.4880014006048 0.491625012071855
32.5040014013648 0.447639364415688
32.5200014021248 0.560106111234013
32.5360014028847 0.364982572176004
32.5520014036447 0.351455276186444
32.5680014044046 0.560522327445969
32.5840014051646 0.700037103162748
32.6000014059246 0.464405283393244
32.6160014066845 0.608184239998185
32.6320014074445 0.486723264391917
32.6480014082044 0.752676609250352
32.6640014089644 0.490395987473792
32.6800014097243 0.532644966365582
32.6960014104843 0.883018228734133
32.7120014112443 0.777800326094255
32.7280014120042 0.79796917868288
32.7440014127642 0.35691867442323
32.7600014135241 0.371929062371726
32.7760014142841 0.471860482533057
32.7920014150441 0.459867807501787
32.808001415804 0.414645651607921
32.824001416564 0.554664363337215
32.8400014173239 0.640710505576642
32.8560014180839 0.719795685465608
32.8720014188439 0.3974275012818
32.8880014196038 0.197176191609971
32.9040014203638 0.484642809762127
32.9200014211237 0.568375155141691
32.9360014218837 0.389585818901257
32.9520014226437 0.388791920717335
32.9680014234036 0.687782373742785
32.9840014241636 0.675438026730014
33.0000014249235 0.452791043488675
33.0160014256835 0.397576449853552
33.0320014264435 0.629649808615724
33.0480014272034 0.255300765789551
33.0640014279634 0.460967264166776
33.0800014287233 0.614686908466736
33.0960014294833 0.43829937108572
33.1120014302432 0.525755921757227
33.1280014310032 0.215207150394055
33.1440014317632 0.477930252932672
33.1600014325231 0.415911989463037
33.1760014332831 0.733466934196259
33.192001434043 0.608454189154239
33.208001434803 0.430074364097
33.224001435563 0.481670344154921
33.2400014363229 0.486161806149138
33.2560014370829 0.585681397620222
33.2720014378428 0.323502040041602
33.2880014386028 0.65264670493303
33.3040014393628 0.714090123533426
33.3200014401227 0.491559995112652
33.3360014408827 0.85457936924316
33.3520014416426 0.769981883273332
33.3680014424026 0.62961425699176
33.3840014431626 0.444525742747841
33.4000014439225 0.502929154005173
33.4160014446825 0.676141605969871
33.4320014454424 0.360677845396317
33.4480014462024 0.439694882060859
33.4640014469623 0.561199703605097
33.4800014477223 0.601486495777438
33.4960014484823 0.471726577838058
33.5120014492422 0.614605060676683
33.5280014500022 0.646157415411506
33.5440014507621 0.624877127034078
33.5600014515221 0.349700150659554
33.5760014522821 0.494911378482517
33.592001453042 0.376078377269903
33.608001453802 0.333108393491576
33.6240014545619 0.518896082592983
33.6400014553219 0.610377324852623
33.6560014560819 0.536795351803706
33.6720014568418 0.391865523875071
33.6880014576018 0.598913958413625
33.7040014583617 0.520605533807345
33.7200014591217 0.544896462072909
33.7360014598817 0.435685526774221
33.7520014606416 0.444134975710218
33.7680014614016 0.42787692425703
33.7840014621615 0.473902172024042
33.8000014629215 0.483994407060312
33.8160014636815 0.459221807260821
33.8320014644414 0.443240894354272
33.8480014652014 0.472471668903377
33.8640014659613 0.390764805126294
33.8800014667213 0.476941390667981
33.8960014674812 0.684691674605522
33.9120014682412 0.616293819672481
33.9280014690012 0.356103779111121
33.9440014697611 0.310097296803053
33.9600014705211 0.407453958139866
33.976001471281 0.582482676054831
33.992001472041 0.425238799805786
34.008001472801 0.597586151105877
34.0240014735609 0.643439095649174
34.0400014743209 0.767394051642352
34.0560014750808 0.567740318034169
34.0720014758408 0.470758698215543
34.0880014766008 0.604159667404753
34.1040014773607 0.639182900585176
34.1200014781207 0.372361586634314
34.1360014788806 0.651813121140949
34.1520014796406 0.668414470848709
34.1680014804006 0.466635809528009
34.1840014811605 0.683263738892406
34.2000014819205 0.506143628283478
34.2160014826804 0.743251294105661
34.2320014834404 0.773152267750378
34.2480014842004 0.529418696717681
34.2640014849603 0.63592854287743
34.2800014857203 0.627462518005275
34.2960014864802 0.683391302811033
34.3120014872402 0.803266621267562
34.3280014880001 0.803971536884353
34.3440014887601 0.770426263749119
34.3600014895201 0.892160575510737
34.37600149028 0.95989154767212
34.39200149104 0.951849032054723
34.4080014917999 1.42488923339237
34.4240014925599 1.27755969063022
34.4400014933199 1.00344711257754
34.4560014940798 1.13436143639231
34.4720014948398 1.49741906946811
34.4880014955997 1.70978409536296
34.5040014963597 1.837090774942
34.5200014971197 1.79770968500727
34.5360014978796 1.84362086039711
34.5520014986396 1.86837326172906
34.5680014993995 1.91063195973802
34.5840015001595 2.34256969266684
34.6000015009195 1.85115120333829
34.6160015016794 1.84623356334033
34.6320015024394 1.89885002834375
34.6480015031993 2.49622943067271
34.6640015039593 2.36661462299724
34.6800015047193 2.62198234654063
34.6960015054792 2.53299686608912
34.7120015062392 2.34793440528313
34.7280015069991 2.43147025956582
34.7440015077591 2.86033874875768
34.760001508519 3.03280284338607
34.776001509279 2.71520008781255
34.792001510039 2.66765917684614
34.8080015107989 3.0562967611714
34.8240015115589 3.37177363428656
34.8400015123188 2.89780324225834
34.8560015130788 3.37661996989428
34.8720015138388 3.81954152583203
34.8880015145987 3.91232487889373
34.9040015153587 4.24868806021118
34.9200015161186 4.02939602698635
34.9360015168786 4.25650035195847
34.9520015176386 4.20520201023894
34.9680015183985 4.05433977893766
34.9840015191585 4.20179156204166
35.0000015199184 3.91602274584122
35.0160015206784 3.84959206352133
35.0320015214384 3.92944604147445
35.0480015221983 3.76603749857569
35.0640015229583 3.36716364484778
35.0800015237182 3.70078217248132
35.0960015244782 3.35891108598416
35.1120015252381 3.39464815259907
35.1280015259981 3.35916207994583
35.1440015267581 3.05255947576081
35.160001527518 3.25316383587287
35.176001528278 2.78471422539626
35.1920015290379 2.93575902457725
35.2080015297979 2.451055417382
35.2240015305579 2.56494081761073
35.2400015313178 2.30688702143939
35.2560015320778 2.36450390679498
35.2720015328377 2.61862631849571
35.2880015335977 2.18386472808083
35.3040015343577 2.24479572051568
35.3200015351176 2.56899791750478
35.3360015358776 2.5131278582379
35.3520015366375 2.60454173657175
35.3680015373975 1.98854410813347
35.3840015381575 2.23974490647667
35.4000015389174 2.37443967300261
35.4160015396774 2.26976994799955
35.4320015404373 1.91702648895574
35.4480015411973 2.23714627832534
35.4640015419573 1.80899441101806
35.4800015427172 2.24977779815501
35.4960015434772 1.88966211337854
35.5120015442371 2.00343284478616
35.5280015449971 1.9653509392552
35.544001545757 1.79850791091943
35.560001546517 1.46609283287687
35.576001547277 1.86898679442906
35.5920015480369 2.22406877572114
35.6080015487969 1.89247951383468
35.6240015495568 1.80564942809979
35.6400015503168 2.20577912608754
35.6560015510768 2.20451145439753
35.6720015518367 1.76672536792511
35.6880015525967 1.67165760123473
35.7040015533566 1.91928950201899
35.7200015541166 2.27214891467553
35.7360015548766 1.9763363819001
35.7520015556365 2.080797553595
35.7680015563965 2.26431965574201
35.7840015571564 2.20389562515899
35.8000015579164 2.13432840484815
35.8160015586764 2.15581167227406
35.8320015594363 2.27357531155224
35.8480015601963 2.41890999990591
35.8640015609562 1.96365824931162
35.8800015617162 2.10348554262626
35.8960015624762 2.26806838027122
35.9120015632361 2.45482287007042
35.9280015639961 2.24560988047203
35.944001564756 2.25015925821396
35.960001565516 2.37748976820731
35.9760015662759 2.41261031217474
35.9920015670359 2.05787650983827
36.0080015677959 2.29995256148828
36.0240015685558 2.17316443690986
36.0400015693158 2.07174436839825
36.0560015700757 1.95829898675843
36.0720015708357 1.71188378424738
36.0880015715957 1.69137533688833
36.1040015723556 1.5485454099504
36.1200015731156 1.68937666358184
36.1360015738755 1.59850029746962
36.1520015746355 1.49098813103266
36.1680015753955 1.40141072463696
36.1840015761554 1.49193311766312
36.2000015769154 1.44710347348815
36.2160015776753 1.57063113526978
36.2320015784353 1.67279789246995
36.2480015791953 1.5262177196549
36.2640015799552 1.41360811804539
36.2800015807152 1.86242376297595
36.2960015814751 1.67868939972232
36.3120015822351 1.92793119380447
36.328001582995 1.89229471473995
36.344001583755 1.59467130997847
36.360001584515 1.83659855976556
36.3760015852749 2.11670914485231
36.3920015860349 2.39859122632161
36.4080015867948 2.77206763394489
36.4240015875548 3.21241373846507
36.4400015883148 3.49021487412052
36.4560015890747 4.85368764919101
36.4720015898347 6.42192273338129
36.4880015905946 7.76657603139708
36.5040015913546 8.29610093268254
36.5200015921146 7.45860817485348
36.5360015928745 5.81562170942613
36.5520015936345 5.33206695766749
36.5680015943944 5.22951391635291
36.5840015951544 5.06273881220258
36.6000015959144 5.2636053498675
36.6160015966743 4.2844606202154
36.6320015974343 3.34890831314172
36.6480015981942 2.53119775293355
36.6640015989542 2.47656096424809
36.6800015997142 2.38287179555317
36.6960016004741 2.01967213793334
36.7120016012341 1.59824943684599
36.728001601994 1.37115002707243
36.744001602754 1.23345118633472
36.7600016035139 1.22782435015755
36.7760016042739 1.54298435175506
36.7920016050339 1.43021804201115
36.8080016057938 1.49010240300433
36.8240016065538 1.45426784365618
36.8400016073137 1.53493494272351
36.8560016080737 1.58252146742079
36.8720016088337 1.58983222634069
36.8880016095936 1.62709409879439
36.9040016103536 1.59039964447834
36.9200016111135 1.42774284474016
36.9360016118735 1.43553115775264
36.9520016126335 1.41397882927494
36.9680016133934 1.38022449655581
36.9840016141534 1.26486638819816
37.0000016149133 1.48772532651171
37.0160016156733 1.49100160245911
37.0320016164333 1.63864587969581
37.0480016171932 1.2704477018856
37.0640016179532 0.931498503093428
37.0800016187131 0.848085610170358
37.0960016194731 1.33510221538108
37.1120016202331 1.09709668213873
37.128001620993 1.16007684964505
37.144001621753 1.28972620778998
37.1600016225129 1.32906125130326
37.1760016232729 1.06628624761969
37.1920016240328 1.34990604252703
37.2080016247928 1.18820316675137
37.2240016255528 1.40210427159818
37.2400016263127 1.30219186230517
37.2560016270727 1.46501204768359
37.2720016278326 1.37602929762261
37.2880016285926 1.40133460802875
37.3040016293526 1.31990394821233
37.3200016301125 1.50468347070714
37.3360016308725 1.45840987910702
37.3520016316324 1.2219276392323
37.3680016323924 1.2810057898417
37.3840016331524 1.25436285407107
37.4000016339123 1.34394300865027
37.4160016346723 1.44363502182809
37.4320016354322 1.09469575805733
37.4480016361922 1.42663942931677
37.4640016369522 1.328187155886
37.4800016377121 1.08069564424858
37.4960016384721 1.35927598364907
37.512001639232 1.74687069844111
37.528001639992 1.81286363918194
37.544001640752 1.41154006171438
37.5600016415119 1.97492279221594
37.5760016422719 1.94811453566024
37.5920016430318 1.92433737477901
37.6080016437918 2.19843677202561
37.6240016445517 2.15828433534414
37.6400016453117 2.05601279214924
37.6560016460717 2.19920852783922
37.6720016468316 2.32816492894502
37.6880016475916 1.90158495413986
37.7040016483515 2.13730719250254
37.7200016491115 2.42575524692032
37.7360016498715 2.27486786688484
37.7520016506314 2.18754407843058
37.7680016513914 2.0391611407904
37.7840016521513 2.07965723797362
37.8000016529113 1.93048587110084
37.8160016536713 1.73457766174948
37.8320016544312 1.68198538695041
37.8480016551912 1.73484044616107
37.8640016559511 1.70444272271342
37.8800016567111 1.91807501798211
37.8960016574711 1.53036424673736
37.912001658231 1.43695858439646
37.928001658991 1.58841314643163
37.9440016597509 1.757327801313
37.9600016605109 1.82895939666723
37.9760016612708 2.03427993864013
37.9920016620308 1.82437614140268
38.0080016627908 1.40085767469809
38.0240016635507 1.33903877288562
38.0400016643107 1.28092434096485
38.0560016650706 1.28921997880643
38.0720016658306 1.70102351799377
38.0880016665906 1.49161773595235
38.1040016673505 1.64217747596578
38.1200016681105 1.66624849454918
38.1360016688704 1.45099174760292
38.1520016696304 1.39930075798173
38.1680016703904 1.68955579994299
38.1840016711503 1.42670217174101
38.2000016719103 1.57382615478404
38.2160016726702 1.75864934312018
38.2320016734302 1.82862430529539
38.2480016741902 1.49183172391302
38.2640016749501 1.98074436645017
38.2800016757101 1.96790546169463
38.29600167647 1.64524592687762
38.31200167723 1.83797186109228
38.32800167799 2.24610884797574
38.3440016787499 2.05714100738311
38.3600016795099 1.94564019413955
38.3760016802698 2.25137907468408
38.3920016810298 2.18045115483135
38.4080016817897 1.97877275596928
38.4240016825497 2.32660705095712
38.4400016833097 2.28687015479442
38.4560016840696 2.19822259739518
38.4720016848296 1.88024476200395
38.4880016855895 1.81585844008899
38.5040016863495 1.96277776791311
38.5200016871095 2.43883364091459
38.5360016878694 1.99636166888167
38.5520016886294 1.9406984787776
38.5680016893893 1.97212515520762
38.5840016901493 1.78937932957575
38.6000016909093 1.71631935892006
38.6160016916692 1.69215488108387
38.6320016924292 1.94844774123868
38.6480016931891 1.76920086069128
38.6640016939491 1.78385617328022
38.6800016947091 1.79852303281921
38.696001695469 1.68882993859907
38.712001696229 1.76061942185853
38.7280016969889 1.30946355185668
38.7440016977489 1.62632102934493
38.7600016985089 1.68199506826972
38.7760016992688 1.36120655661048
38.7920017000288 1.40431970727714
38.8080017007887 1.35073791491927
38.8240017015487 1.21883911699321
38.8400017023086 0.755113538222208
38.8560017030686 0.892419832261418
38.8720017038286 1.19195314228514
38.8880017045885 1.2512947786525
38.9040017053485 1.04031143892498
38.9200017061084 1.03569817213323
38.9360017068684 1.07384854527432
38.9520017076284 1.37214459388013
38.9680017083883 0.919078830974557
38.9840017091483 1.01089422236477
39.0000017099082 0.786480261916361
39.0160017106682 0.729578043123989
39.0320017114282 1.01289462546694
39.0480017121881 1.38244206874808
39.0640017129481 1.0437522795284
39.080001713708 0.837452636353216
39.096001714468 1.17220099397213
39.112001715228 1.32231226053411
39.1280017159879 1.40884250153115
39.1440017167479 1.35145608698694
39.1600017175078 1.43136836985618
39.1760017182678 1.2270403303995
39.1920017190278 1.11337256319359
39.2080017197877 1.43947301027319
39.2240017205477 1.04052944202475
39.2400017213076 1.32087775741265
39.2560017220676 1.73419538050267
39.2720017228275 1.32665739175172
39.2880017235875 1.46111891930203
39.3040017243475 1.58713906365391
39.3200017251074 1.98244881328031
39.3360017258674 1.95473902542336
39.3520017266273 2.61871709008427
39.3680017273873 3.27426967325264
39.3840017281473 4.08070043738262
39.4000017289072 5.28859738367405
39.4160017296672 6.4685929000679
39.4320017304271 6.09970145474251
39.4480017311871 4.85912052817195
39.4640017319471 3.70228251836849
39.480001732707 3.28920793767882
39.496001733467 3.38969182768413
39.5120017342269 3.72298881886323
39.5280017349869 3.90385043845775
39.5440017357469 2.96228168069764
39.5600017365068 1.99089026421176
39.5760017372668 1.59085236343892
39.5920017380267 1.03435060004278
39.6080017387867 1.28535986368645
39.6240017395466 1.02031563428108
39.6400017403066 0.725220812563336
39.6560017410666 0.756893837171585
39.6720017418265 0.692941728922071
39.6880017425865 0.597273629538053
39.7040017433464 0.602237941906202
39.7200017441064 0.592250434740515
39.7360017448664 0.557010825363696
39.7520017456263 0.786503890396903
39.7680017463863 0.685636746449241
39.7840017471462 0.638633324017034
39.8000017479062 0.977245899348934
39.8160017486662 0.608351475408892
39.8320017494261 0.584132215758674
39.8480017501861 0.652450929561306
39.864001750946 0.743783306689377
39.880001751706 0.885106897525403
39.896001752466 0.521033085103322
39.9120017532259 0.788330440224068
39.9280017539859 0.890784939579877
39.9440017547458 0.58205307477315
39.9600017555058 0.279033231679088
39.9760017562658 0.737066924604836
39.9920017570257 0.52923910427606
