'Id: "" Comment: "" Operator: "Lab Manager" Anode: "Cu" Scantype: "Locked Coupled" TimePerStep: "157.8621" 
3 1.77048495681137
3.01600000075996 1.83989378836583
3.03200000151992 1.48933235749925
3.04800000227988 1.81715377512557
3.06400000303984 1.05953854910484
3.0800000037998 1.08583874141733
3.09600000455976 1.08244564229057
3.11200000531971 1.41799542923261
3.12800000607967 1.59509984340877
3.14400000683963 0.447179819198104
3.16000000759959 0.924740124813357
3.17600000835955 0.94845256574889
3.19200000911951 0.893259999479933
3.20800000987947 0.901939400648593
3.22400001063943 1.19421341035485
3.24000001139939 1.19494647029969
3.25600001215935 0.877792529728558
3.27200001291931 0.346343234173463
3.28800001367927 0.602992676222647
3.30400001443923 0.423099761598752
3.32000001519918 0.903612676487302
3.33600001595914 1.11525775163714
3.3520000167191 0.850360023439605
3.36800001747906 0.643338905467622
3.38400001823902 0.475113837430885
3.40000001899898 0.75065442050948
3.41600001975894 0.735104210503574
3.4320000205189 0.886018004229956
3.44800002127886 0.641854665960106
3.46400002203882 0.580641495633048
3.48000002279878 1.04506943187943
3.49600002355874 1.20159852862077
3.5120000243187 0.565383217791658
3.52800002507865 0.602636319183193
3.54400002583861 0.334225345796709
3.56000002659857 0.818475076532915
3.57600002735853 0.719345944779284
3.59200002811849 0.60474393590665
3.60800002887845 0.458597219763752
3.62400002963841 1.42420273116995
3.64000003039837 1.09305208936083
3.65600003115833 1.17789752204057
3.67200003191829 0.763768701599235
3.68800003267825 0.617843610567252
3.70400003343821 0.708490638283915
3.72000003419816 0.349001839482919
3.73600003495812 0.851048340643817
3.75200003571808 0.761542567272506
3.76800003647804 0.49639745548756
3.784000037238 0.532864933049164
3.80000003799796 0.561494224676017
3.81600003875792 1.38870731235547
3.83200003951788 0.904724944470412
3.84800004027784 0.751215304843551
3.8640000410378 0.989322555248861
3.88000004179776 0.718274092611554
3.89600004255772 1.12726725713483
3.91200004331768 0.220172494810934
3.92800004407763 1.03898131012305
3.94400004483759 0.512230431671767
3.96000004559755 0.865037668335805
3.97600004635751 1.59022696873466
3.99200004711747 1.27727359770984
4.00800004787743 0.419916016258809
4.02400004863739 0.106414145022007
4.04000004939735 0.527015243276735
4.05600005015731 0.850110491917625
4.07200005091727 0.865362362937495
4.08800005167723 0.817707056177912
4.10400005243719 0.92462736757023
4.12000005319715 0.751207584596304
4.1360000539571 0.942677477770736
4.15200005471706 0.578768866107079
4.16800005547702 1.27804204620091
4.18400005623698 1.24502603101056
4.20000005699694 0.859547480376469
4.2160000577569 0.285674130671874
4.23200005851686 0.119950066937323
4.24800005927682 0.468894748782911
4.26400006003678 0.913345452051007
4.28000006079674 1.01300181804832
4.2960000615567 1.16870414996989
4.31200006231666 0.549371647563546
4.32800006307662 1.09528031692351
4.34400006383657 1.04117189082632
4.36000006459653 0.192990493074549
4.37600006535649 0.896109086758851
4.39200006611645 0.593847413250116
4.40800006687641 0.50684649493656
4.42400006763637 0.514463008347167
4.44000006839633 0.768040708706905
4.45600006915629 0.516102782747928
4.47200006991625 0.809027942929748
4.48800007067621 0.706580389655488
4.50400007143617 0.68422827391064
4.52000007219613 0.982597408288536
4.53600007295609 0.976555859334275
4.55200007371604 1.25877699397998
4.568000074476 0.834386727455906
4.58400007523596 0.545325270379467
4.60000007599592 0.289926563129323
4.61600007675588 0.800588590601598
4.63200007751584 0.78519662469856
4.6480000782758 0.473445796872517
4.66400007903576 0.825426276172059
4.68000007979572 0.640981947843559
4.69600008055568 0.739770931565675
4.71200008131564 0.564036561672615
4.7280000820756 0.570293539500269
4.74400008283556 0.809197572692049
4.76000008359551 0.550080657556459
4.77600008435547 0.438702439497017
4.79200008511543 0.724729095805887
4.80800008587539 0.303434748031367
4.82400008663535 0.672251083604148
4.84000008739531 0.715854566763805
4.85600008815527 0.419764260783494
4.87200008891523 0.948545213441885
4.88800008967519 0.724385879882457
4.90400009043515 0.429445502683378
4.92000009119511 0.653525766939739
4.93600009195507 0.259237429115045
4.95200009271502 0.4306874018711
4.96800009347498 0.834897139732152
4.98400009423494 0.574119969022092
5.0000000949949 0.562265921764456
5.01600009575486 0.367974064928748
5.03200009651482 0.353217406276282
5.04800009727478 0.501774673765488
5.06400009803474 1.20075732193351
5.0800000987947 0.730362755589158
5.09600009955466 0.582932686799803
5.11200010031462 0.356562471026503
5.12800010107458 0.497864787832053
5.14400010183454 0.489709753493968
5.16000010259449 0.347341951589391
5.17600010335445 1.07964208642684
5.19200010411441 0.641843904197443
5.20800010487437 0.486878549750485
5.22400010563433 0.750662742139524
5.24000010639429 0.866464521690893
5.25600010715425 0.651471691634433
5.27200010791421 0.729275759575972
5.28800010867417 0.645081541216459
5.30400010943413 0.431367857890641
5.32000011019409 0.418544592954482
5.33600011095405 0.626620452705725
5.35200011171401 0.762263115916777
5.36800011247396 0.852556671974283
5.38400011323392 1.2330786264046
5.40000011399388 1.1887530521189
5.41600011475384 1.20947431896208
5.4320001155138 1.1838762066602
5.44800011627376 1.09011615307978
5.46400011703372 0.645850209290557
5.48000011779368 0.869783250210598
5.49600011855364 0.476706400182148
5.5120001193136 0.964350674366353
5.52800012007356 0.493207704201025
5.54400012083352 0.785849282208132
5.56000012159348 0.976762134971309
5.57600012235343 1.12839980797402
5.59200012311339 0.915391032365181
5.60800012387335 0.805821870960929
5.62400012463331 0.877210940598125
5.64000012539327 1.17587794168895
5.65600012615323 1.25084574004089
5.67200012691319 1.20693907548781
5.68800012767315 0.981023291358478
5.70400012843311 1.1867875841505
5.72000012919307 1.29874257196894
5.73600012995303 1.33990932361159
5.75200013071299 1.18876117530912
5.76800013147295 1.30239949893309
5.7840001322329 1.02641701045741
5.80000013299286 1.47374242581278
5.81600013375282 1.07650950057323
5.83200013451278 1.1069575253009
5.84800013527274 1.2511799348558
5.8640001360327 1.47423081153743
5.88000013679266 1.62719399923134
5.89600013755262 1.16106312561634
5.91200013831258 1.59694101386195
5.92800013907254 2.12517664517595
5.9440001398325 2.09007105549388
5.96000014059246 2.16609946520488
5.97600014135242 1.81365367448382
5.99200014211237 1.38380895221091
6.00800014287233 1.60386121565236
6.02400014363229 2.06784109249818
6.04000014439225 1.79322462722873
6.05600014515221 2.10268685976442
6.07200014591217 2.02134934808825
6.08800014667213 2.01432640047903
6.10400014743209 2.35510196818356
6.12000014819205 2.91443637091002
6.13600014895201 2.17247769927132
6.15200014971197 2.66076025626891
6.16800015047192 3.09600528927935
6.18400015123188 3.29342623611723
6.20000015199184 3.08412702470521
6.2160001527518 2.8306502971641
6.23200015351176 3.3148511085752
6.24800015427172 3.33380030350945
6.26400015503168 2.76523721192612
6.28000015579164 2.73611729487921
6.2960001565516 2.64465823011871
6.31200015731156 2.27972374052665
6.32800015807152 2.26929507392217
6.34400015883148 2.63981055269253
6.36000015959144 2.28246673851298
6.37600016035139 2.13863001549119
6.39200016111135 1.9812093684624
6.40800016187131 2.14993223400355
6.42400016263127 2.56395738157019
6.44000016339123 2.98848377625308
6.45600016415119 2.95735624986136
6.47200016491115 2.94911826550247
6.48800016567111 2.44637648908057
6.50400016643107 2.01757996121027
6.52000016719103 2.38307671578711
6.53600016795099 2.13302640683723
6.55200016871095 1.70018120808513
6.56800016947091 2.5465942544231
6.58400017023086 2.79641797835903
6.60000017099082 2.16317626438506
6.61600017175078 2.35585812982425
6.63200017251074 2.80974983015479
6.6480001732707 3.14420259633451
6.66400017403066 2.76958332451474
6.68000017479062 2.63421374469895
6.69600017555058 2.40063614816336
6.71200017631054 2.8852096464547
6.7280001770705 3.04517373955832
6.74400017783046 2.89872198341299
6.76000017859042 3.04493902990149
6.77600017935038 2.80663924715353
6.79200018011033 2.68078019225461
6.80800018087029 2.67873925123356
6.82400018163025 2.84983454290198
6.84000018239021 3.15930920671719
6.85600018315017 3.04153195204298
6.87200018391013 2.84725717485687
6.88800018467009 3.28126189783515
6.90400018543005 3.129512105254
6.92000018619001 2.91399889893113
6.93600018694997 2.85836296184398
6.95200018770993 2.6937267209501
6.96800018846989 3.17294633791037
6.98400018922985 3.13019723981806
7.0000001899898 2.94862120603985
7.01600019074976 2.83808064403847
7.03200019150972 2.65760429421471
7.04800019226968 2.88243433699093
7.06400019302964 2.67685654517898
7.0800001937896 2.74833084446829
7.09600019454956 2.65024422509892
7.11200019530952 3.27248740108633
7.12800019606948 2.88891023975807
7.14400019682944 2.69119474073067
7.1600001975894 2.98898743804743
7.17600019834936 3.13895540215987
7.19200019910931 3.10336169350851
7.20800019986927 2.70911411137546
7.22400020062923 2.74356213769361
7.24000020138919 3.13266412234718
7.25600020214915 3.20453099409484
7.27200020290911 3.35699609169415
7.28800020366907 3.48390780772546
7.30400020442903 2.85823280559544
7.32000020518899 2.43563334541971
7.33600020594895 2.68522320729959
7.35200020670891 2.38886590848824
7.36800020746887 2.69031563423298
7.38400020822883 2.84043603339177
7.40000020898878 3.27509617861937
7.41600020974874 2.62203656680097
7.4320002105087 2.58333871946645
7.44800021126866 3.17034749108442
7.46400021202862 2.70038843700388
7.48000021278858 3.20939280427295
7.49600021354854 2.4705529774818
7.5120002143085 2.77654913124605
7.52800021506846 2.9672954095009
7.54400021582842 3.11104231523922
7.56000021658838 2.55471711879494
7.57600021734834 2.66798681291763
7.5920002181083 2.34209843185059
7.60800021886825 2.94241017362425
7.62400021962821 2.76318948435709
7.64000022038817 2.66415223538879
7.65600022114813 2.9164503193964
7.67200022190809 2.62716350924274
7.68800022266805 2.77725762514104
7.70400022342801 2.72315014010815
7.72000022418797 2.60619392217959
7.73600022494793 2.92033369267227
7.75200022570789 3.01348924906884
7.76800022646785 2.70998563078259
7.78400022722781 2.20753360299056
7.80000022798777 2.72434502639757
7.81600022874772 2.78439714267717
7.83200022950768 2.65996479612931
7.84800023026764 2.56345435503511
7.8640002310276 2.27773525380572
7.88000023178756 2.50764358774606
7.89600023254752 2.67698807991495
7.91200023330748 3.14123165251188
7.92800023406744 2.77622858434033
7.9440002348274 2.36264734402376
7.96000023558736 2.84555744984178
7.97600023634732 2.51336951791102
7.99200023710728 2.27020205165239
8.00800023786724 2.39857373437993
8.0240002386272 2.48829155732282
8.04000023938715 2.69390783684719
8.05600024014711 2.74120809887842
8.07200024090707 2.74393741172805
8.08800024166703 2.82718702786301
8.10400024242699 3.16169010764732
8.12000024318695 2.40418389303877
8.13600024394691 2.57001003569483
8.15200024470687 2.56383069237261
8.16800024546683 2.4353061025008
8.18400024622679 2.10121205014292
8.20000024698675 2.67478209562831
8.21600024774671 2.53039110273471
8.23200024850667 2.63015108761353
8.24800024926662 2.10928406904179
8.26400025002658 2.20198407292974
8.28000025078654 2.44716143745277
8.2960002515465 2.27934529090955
8.31200025230646 2.47309976691106
8.32800025306642 2.71247742814636
8.34400025382638 2.73260866601981
8.36000025458634 2.29750202684776
8.3760002553463 2.53373950129573
8.39200025610626 2.0328592850605
8.40800025686622 2.23211678662196
8.42400025762618 2.77482048215827
8.44000025838614 2.66852759847685
8.45600025914609 2.38929089530494
8.47200025990605 2.52850637149939
8.48800026066601 2.32824506109191
8.50400026142597 2.16777080157076
8.52000026218593 3.06852754316056
8.53600026294589 2.63659800273007
8.55200026370585 2.76522724658695
8.56800026446581 2.72906215326937
8.58400026522577 3.12946370827378
8.60000026598573 2.63397574658304
8.61600026674569 3.08875046491304
8.63200026750565 3.33973142672941
8.6480002682656 3.37387092314219
8.66400026902556 3.19403359392448
8.68000026978552 3.5504184379987
8.69600027054548 3.91629366704093
8.71200027130544 4.85278947727589
8.7280002720654 4.81902015411816
8.74400027282536 5.53432911635969
8.76000027358532 6.23737947403051
8.77600027434528 7.4651401484994
8.79200027510524 8.96030900384914
8.8080002758652 10.2785386482262
8.82400027662516 10.8638090807848
8.84000027738512 9.99019079457404
8.85600027814507 8.05994561245879
8.87200027890503 6.22907394576803
8.88800027966499 4.0196031473183
8.90400028042495 2.85959511020939
8.92000028118491 2.31495568952236
8.93600028194487 2.61392062850169
8.95200028270483 2.56761766458794
8.96800028346479 1.89828442234798
8.98400028422475 1.40755613524693
9.00000028498471 1.3777570886212
9.01600028574467 1.70973347012975
9.03200028650463 1.48936918735979
9.04800028726459 1.42898917519358
9.06400028802454 1.50484283702837
9.0800002887845 1.00667595987874
9.09600028954446 1.39540599209296
9.11200029030442 1.41554103967323
9.12800029106438 1.51074845027187
9.14400029182434 1.54010318860553
9.1600002925843 1.24495582671446
9.17600029334426 1.25585418637635
9.19200029410422 1.5632462998315
9.20800029486418 1.11610339000071
9.22400029562414 1.02018036265448
9.24000029638409 1.13249607574889
9.25600029714405 1.14239054437647
9.27200029790401 0.681229827207177
9.28800029866397 0.541081932284695
9.30400029942393 0.678790495279906
9.32000030018389 0.816198316804971
9.33600030094385 0.972803790849416
9.35200030170381 0.355995954482197
9.36800030246377 0.478808045714691
9.38400030322373 0.451858527779716
9.40000030398369 0.826679576515269
9.41600030474365 0.777046503043127
9.43200030550361 0.508688291138392
9.44800030626356 0.833202250837789
9.46400030702352 0.738103492351549
9.48000030778348 0.670996591962751
9.49600030854344 0.739615015464788
9.5120003093034 1.08828842474472
9.52800031006336 0.887419622563979
9.54400031082332 0.709281535220952
9.56000031158328 0.869576145047563
9.57600031234324 1.13115314884507
9.5920003131032 0.723899505738037
9.60800031386316 0.730224295441118
9.62400031462312 0.948323198625384
9.64000031538307 0.267277800409263
9.65600031614303 0.610895876205105
9.67200031690299 0.464670823729144
9.68800031766295 0.362159289510335
9.70400031842291 0.956816389220083
9.72000031918287 0.636139438123268
9.73600031994283 0.705936922544207
9.75200032070279 0.557950814599368
9.76800032146275 0.500712762011395
9.78400032222271 0.77821898483593
9.80000032298267 0.363368225257589
9.81600032374263 0.698724244389358
9.83200032450259 0.273270058765315
9.84800032526254 0.460240364055308
9.8640003260225 1.03976283762312
9.88000032678246 0.341790556286388
9.89600032754242 1.04744503353865
9.91200032830238 0.92107555142297
9.92800032906234 0.369711007510065
9.9440003298223 0.707496602259799
9.96000033058226 0.819229600265991
9.97600033134222 0.497724264488242
9.99200033210218 0.366991927576335
10.0080003328621 0.59399623706086
10.0240003336221 0.532157252874133
10.0400003343821 0.489837586572414
10.056000335142 0.572691019376104
10.072000335902 0.545566221988273
10.0880003366619 0.330935355985747
10.1040003374219 0.616493499444863
10.1200003381819 0.844095672833807
10.1360003389418 0.723542328046558
10.1520003397018 0.621222282502067
10.1680003404617 0.52531435939622
10.1840003412217 0.433903321074454
10.2000003419816 0.575002751012001
10.2160003427416 0.310287299860419
10.2320003435016 0.781503309066562
10.2480003442615 0.838666616762629
10.2640003450215 0.528135240606054
10.2800003457814 0.390623055452649
10.2960003465414 0.088508924282654
10.3120003473014 0.888265301515474
10.3280003480613 0.736649098022681
10.3440003488213 0.959248306745004
10.3600003495812 0.557603858364829
10.3760003503412 0.888646427106333
10.3920003511012 0.832692829795078
10.4080003518611 0.591195992871914
10.4240003526211 0.882249146984649
10.440000353381 0.779169920783983
10.456000354141 1.20159436543057
10.472000354901 0.660594752042626
10.4880003556609 0.683133623258667
10.5040003564209 1.10039056212875
10.5200003571808 0.566817210969563
10.5360003579408 0.695819795649942
10.5520003587008 0.726676147229044
10.5680003594607 0.755355548463707
10.5840003602207 0.803718102596815
10.6000003609806 0.842470550274292
10.6160003617406 0.328982891149141
10.6320003625005 0.509060625547337
10.6480003632605 0.576241227629919
10.6640003640205 0.85537756750744
10.6800003647804 0.753686689523172
10.6960003655404 0.819646013246344
10.7120003663003 1.3752968712426
10.7280003670603 0.906220444921124
10.7440003678203 0.795824212676124
10.7600003685802 1.00710893947329
10.7760003693402 0.73224540706114
10.7920003701001 0.957225925413067
10.8080003708601 0.558834278495026
10.8240003716201 0.743614109743118
10.84000037238 1.00858097872456
10.85600037314 1.00839463163326
10.8720003738999 0.65157344529764
10.8880003746599 0.433260194772923
10.9040003754199 0.788091088136247
10.9200003761798 1.06939760230451
10.9360003769398 0.811240325622571
10.9520003776997 0.668320772362946
10.9680003784597 0.222949647584394
10.9840003792196 0.479656622416319
11.0000003799796 0.556563808790867
11.0160003807396 0.619466457670819
11.0320003814995 0.696358788807601
11.0480003822595 0.561798904001049
11.0640003830194 0.79377113172873
11.0800003837794 1.15036861991249
11.0960003845394 0.820567108604451
11.1120003852993 1.1115016863303
11.1280003860593 0.976746718207546
11.1440003868192 0.938537727373714
11.1600003875792 0.893091944875864
11.1760003883392 1.11254280705404
11.1920003890991 0.853369930318713
11.2080003898591 0.610171318149033
11.224000390619 0.930879578410319
11.240000391379 0.984306170106765
11.256000392139 1.0305339672696
11.2720003928989 1.29347473803965
11.2880003936589 1.06934711074873
11.3040003944188 1.24658561960042
11.3200003951788 1.28873371450192
11.3360003959388 1.3500496398714
11.3520003966987 1.5349443657576
11.3680003974587 1.45632321864305
11.3840003982186 1.19856596755229
11.4000003989786 1.42873492622469
11.4160003997385 1.51640708936939
11.4320004004985 1.23935116314419
11.4480004012585 1.69747736068013
11.4640004020184 2.03513072381496
11.4800004027784 2.04866755106681
11.4960004035383 1.99994935650648
11.5120004042983 3.20320972937256
11.5280004050583 4.06428540647504
11.5440004058182 4.63567496012654
11.5600004065782 5.8936314254902
11.5760004073381 8.74014936388504
11.5920004080981 10.815915476898
11.6080004088581 11.4365459723706
11.624000409618 9.1265708129839
11.640000410378 6.16507268661144
11.6560004111379 3.65607847457523
11.6720004118979 2.50436250388125
11.6880004126579 1.88651171773547
11.7040004134178 1.67363824791027
11.7200004141778 1.97857185478587
11.7360004149377 2.21712287419224
11.7520004156977 1.8625279555566
11.7680004164577 1.98498912674175
11.7840004172176 1.9959878580844
11.8000004179776 2.1414843186354
11.8160004187375 2.69466365605121
11.8320004194975 2.2415992761438
11.8480004202574 2.24799801710508
11.8640004210174 2.59129642694375
11.8800004217774 2.28248372497721
11.8960004225373 2.16518085881824
11.9120004232973 2.28669164572776
11.9280004240572 2.55142811028846
11.9440004248172 2.86345118333424
11.9600004255772 3.41116644680339
11.9760004263371 3.42302944368487
11.9920004270971 3.61969565285517
12.008000427857 3.96027704420441
12.024000428617 4.29356718175219
12.040000429377 4.02449218335119
12.0560004301369 4.09076870066473
12.0720004308969 4.62599940998817
12.0880004316568 4.90133984959694
12.1040004324168 5.34405904461605
12.1200004331768 5.773693007105
12.1360004339367 6.76179918358625
12.1520004346967 7.41596156991573
12.1680004354566 6.93063339730931
12.1840004362166 8.19395648263365
12.2000004369766 10.401300710076
12.2160004377365 11.0464884600776
12.2320004384965 12.7019625109666
12.2480004392564 15.2278621344083
12.2640004400164 17.8951007078387
12.2800004407763 22.3986661400121
12.2960004415363 26.5927366984862
12.3120004422963 31.2558597353276
12.3280004430562 33.5509255034042
12.3440004438162 31.1834683689791
12.3600004445761 26.40524714235
12.3760004453361 20.5467227843916
12.3920004460961 14.9665309502421
12.408000446856 11.0348081384546
12.424000447616 9.92180620757356
12.4400004483759 8.78309359768687
12.4560004491359 8.25727803087519
12.4720004498959 7.08574175594701
12.4880004506558 6.49162415241755
12.5040004514158 6.11345142122834
12.5200004521757 4.95147462239401
12.5360004529357 4.27502072819911
12.5520004536957 3.60886791519819
12.5680004544556 3.29926229094683
12.5840004552156 2.9328491737806
12.6000004559755 2.96132436742736
12.6160004567355 2.2314743236818
12.6320004574954 2.65713695790188
12.6480004582554 1.74546841091965
12.6640004590154 1.52488429718488
12.6800004597753 2.01237687838493
12.6960004605353 1.88233160162702
12.7120004612952 1.75300002664941
12.7280004620552 1.50749266116592
12.7440004628152 1.61334242314759
12.7600004635751 1.53255520043874
12.7760004643351 1.55587872461505
12.792000465095 1.45401975158277
12.808000465855 1.60737684588846
12.824000466615 1.3942447515791
12.8400004673749 1.12532418155267
12.8560004681349 1.34369907884981
12.8720004688948 1.39972951125418
12.8880004696548 0.944912195173235
12.9040004704148 0.666500682595296
12.9200004711747 1.04963998439171
12.9360004719347 1.14306941511136
12.9520004726946 1.18793627271505
12.9680004734546 1.14309208280719
12.9840004742146 1.05328804425033
13.0000004749745 0.920794354325303
13.0160004757345 0.919745862809832
13.0320004764944 0.714331711331513
13.0480004772544 1.02262145289749
13.0640004780143 0.98206878891629
13.0800004787743 1.23516107609891
13.0960004795343 0.919959490119152
13.1120004802942 1.21579932341327
13.1280004810542 0.760166759023584
13.1440004818141 0.318039457298505
13.1600004825741 0.749649669690858
13.1760004833341 1.06181343160845
13.192000484094 0.786751328747516
13.208000484854 0.368049583090737
13.2240004856139 0.269762116178796
13.2400004863739 0.578792604838003
13.2560004871339 0.530914525988737
13.2720004878938 0.794237093488209
13.2880004886538 0.789741079340144
13.3040004894137 0.560260389730735
13.3200004901737 0.51726797922328
13.3360004909337 0.82527478714696
13.3520004916936 1.07597159483357
13.3680004924536 0.840658179879756
13.3840004932135 0.510691046407186
13.4000004939735 0.684123506109448
13.4160004947335 0.885295325237208
13.4320004954934 0.791419772768593
13.4480004962534 0.735716213327444
13.4640004970133 0.42810924689669
13.4800004977733 0.795233320514405
13.4960004985332 0.79669451044863
13.5120004992932 0.730278992452143
13.5280005000532 0.992054895308297
13.5440005008131 0.809666797073429
13.5600005015731 0.504152509363142
13.576000502333 0.612069929923938
13.592000503093 0.572746520804677
13.608000503853 0.520325214266603
13.6240005046129 0.78290869623653
13.6400005053729 0.482539655751625
13.6560005061328 0.433648197451475
13.6720005068928 0.730455530789913
13.6880005076528 0.818617310930756
13.7040005084127 0.810462589399427
13.7200005091727 0.713671416353161
13.7360005099326 0.867040305728362
13.7520005106926 0.947084812925486
13.7680005114526 1.32647194478133
13.7840005122125 0.823491118161994
13.8000005129725 0.725052974650635
13.8160005137324 0.817240526735586
13.8320005144924 1.09301897835793
13.8480005152523 1.06261044855069
13.8640005160123 1.06850198381222
13.8800005167723 0.344148464143923
13.8960005175322 0.671832631600975
13.9120005182922 0.62697939830375
13.9280005190521 0.533781503176576
13.9440005198121 0.663328565010812
13.9600005205721 0.711322458383647
13.976000521332 0.609614934928419
13.992000522092 0.932140481615554
14.0080005228519 0.493157992317127
14.0240005236119 0.702987860724721
14.0400005243719 0.564740183188669
14.0560005251318 0.156774496476994
14.0720005258918 0.781898592994545
14.0880005266517 0.451859845455222
14.1040005274117 0.490180044948407
14.1200005281717 0.817281018574332
14.1360005289316 0.832640994842209
14.1520005296916 0.741683356508688
14.1680005304515 0.870484604065212
14.1840005312115 0.681861563915439
14.2000005319715 0.589609093535201
14.2160005327314 1.01545239425557
14.2320005334914 0.547027023887908
14.2480005342513 0.709688201508899
14.2640005350113 0.709883689970913
14.2800005357712 0.688805068010645
14.2960005365312 0.294506748336667
14.3120005372912 0.743466610473887
14.3280005380511 0.578747643504939
14.3440005388111 0.674766276412114
14.360000539571 0.651408388268261
14.376000540331 0.486040891559683
14.392000541091 0.61281405724469
14.4080005418509 0.325941586063313
14.4240005426109 0.354029634671192
14.4400005433708 0.886552188497865
14.4560005441308 0.661767058421639
14.4720005448908 0.500801963358703
14.4880005456507 0.487235252214965
14.5040005464107 0.346499564072725
14.5200005471706 0.56291927763234
14.5360005479306 0.631425618377217
14.5520005486906 0.602924159581643
14.5680005494505 0.435961990498224
14.5840005502105 0.483420028408847
14.6000005509704 0.55479922493203
14.6160005517304 0.616962053228392
14.6320005524904 0.588969477254769
14.6480005532503 0.735456437039304
14.6640005540103 0.756974993646069
14.6800005547702 0.492975472019615
14.6960005555302 0.490078417352698
14.7120005562901 0.658540695657268
14.7280005570501 0.883491862913737
14.7440005578101 0.849412833474765
14.76000055857 0.353536930835813
14.77600055933 0.477622571771604
14.7920005600899 0.711254050206889
14.8080005608499 0.81672203324552
14.8240005616099 0.736040657701493
14.8400005623698 0.850011413002137
14.8560005631298 0.658719445849028
14.8720005638897 0.538921259114768
14.8880005646497 0.781176848593321
14.9040005654097 0.55387483521367
14.9200005661696 0.55846896157698
14.9360005669296 0.84290422008736
14.9520005676895 0.945052910339165
14.9680005684495 0.471931405238247
14.9840005692095 0.438123701474146
15.0000005699694 0.991898490844478
15.0160005707294 0.678700784609705
15.0320005714893 1.0284093035026
15.0480005722493 0.766922734938723
15.0640005730093 0.798968104075731
15.0800005737692 0.167229050749458
15.0960005745292 0.479649525641663
15.1120005752891 0.966316912686369
15.1280005760491 0.877891382899969
15.144000576809 0.568431894812547
15.160000577569 0.356844826299672
15.176000578329 0.469931910070286
15.1920005790889 0.807700259357603
15.2080005798489 0.703139233862088
15.2240005806088 0.380323212557736
15.2400005813688 0.46819813282313
15.2560005821288 0.605096505696571
15.2720005828887 0.457214637490284
15.2880005836487 0.367716359216744
15.3040005844086 0.572252922077181
15.3200005851686 0.72281153509454
15.3360005859286 0.731746128218448
15.3520005866885 0.508733776668689
15.3680005874485 0.769618704439076
15.3840005882084 0.640289682721565
15.4000005889684 1.09486542122322
15.4160005897284 0.689817587569952
15.4320005904883 0.749242547023463
15.4480005912483 0.373527336058483
15.4640005920082 0.635340215884587
15.4800005927682 0.757792486384612
15.4960005935281 0.766114963387781
15.5120005942881 0.442059290725591
15.5280005950481 0.710075868568423
15.544000595808 0.596867071023865
15.560000596568 0.74948840278299
15.5760005973279 0.529022303469342
15.5920005980879 0.364003472595047
15.6080005988479 0.638460206421898
15.6240005996078 0.645104315245612
15.6400006003678 0.817924526799172
15.6560006011277 1.10429866402407
15.6720006018877 0.900869889198435
15.6880006026477 0.508947993317437
15.7040006034076 0.387171943366616
15.7200006041676 0.764259093902171
15.7360006049275 0.688645430322372
15.7520006056875 0.583638318524176
15.7680006064475 0.929120952666197
15.7840006072074 0.436816987934576
15.8000006079674 0.570779096626278
15.8160006087273 0.600424030390859
15.8320006094873 0.590313632489383
15.8480006102473 0.593570548564737
15.8640006110072 0.491847950504714
15.8800006117672 0.680907865054546
15.8960006125271 0.595749206240785
15.9120006132871 0.589649815032048
15.928000614047 0.850053385832934
15.944000614807 0.941618794952711
15.960000615567 0.710108574439899
15.9760006163269 0.871083603756923
15.9920006170869 0.601904807689684
16.0080006178468 0.8028047146813
16.0240006186068 0.672169101328417
16.0400006193668 0.403145255677244
16.0560006201267 0.699718279640188
16.0720006208867 0.494017174610586
16.0880006216466 0.365096928315263
16.1040006224066 0.786584215690644
16.1200006231666 0.529749769439424
16.1360006239265 0.500766175004441
16.1520006246865 0.171854645025435
16.1680006254464 0.823642405261324
16.1840006262064 0.482618158920723
16.2000006269664 0.587845034398183
16.2160006277263 0.0946372373370865
16.2320006284863 0.754833765275124
16.2480006292462 0.931567378856337
16.2640006300062 0.476266986478103
16.2800006307661 0.245860552844294
16.2960006315261 0.310915002562752
16.3120006322861 0.735846815491009
16.328000633046 0.952966623350648
16.344000633806 1.02326562911675
16.3600006345659 0.574029257327635
16.3760006353259 0.427367655599462
16.3920006360859 0.448526496425683
16.4080006368458 0.618683562400279
16.4240006376058 0.637223852561514
16.4400006383657 0.469968676172649
16.4560006391257 0.398231278793678
16.4720006398857 0.646336123603105
16.4880006406456 0.5963889171138
16.5040006414056 0.535065676440362
16.5200006421655 0.763548812489236
16.5360006429255 0.870089849916719
16.5520006436855 0.537982690316929
16.5680006444454 0.299485948392635
16.5840006452054 0.713441539683353
16.6000006459653 0.505763370278921
16.6160006467253 0.71400830333818
16.6320006474853 1.07435127594334
16.6480006482452 0.591742981292723
16.6640006490052 0.285778448352841
16.6800006497651 0.682578825994029
16.6960006505251 0.749132637376165
16.712000651285 0.597336176301037
16.728000652045 0.666933079749104
16.744000652805 0.950205159371289
16.7600006535649 0.911361839181876
16.7760006543249 0.901902959768717
16.7920006550848 0.805002589559815
16.8080006558448 0.629330305835102
16.8240006566048 0.555737140514576
16.8400006573647 0.625558039468731
16.8560006581247 0.425679998764223
16.8720006588846 0.884446519713422
16.8880006596446 0.685101670303152
16.9040006604046 0.581171347082537
16.9200006611645 0.943952461684368
16.9360006619245 0.7876912537704
16.9520006626844 0.44237836088655
16.9680006634444 1.04802211773258
16.9840006642044 0.716235385014538
17.0000006649643 0.871522062723801
17.0160006657243 0.937381695513099
17.0320006664842 0.596735385396937
17.0480006672442 0.664453420345116
17.0640006680042 0.324276421208872
17.0800006687641 0.421753162686202
17.0960006695241 0.53935695175626
17.112000670284 0.808943546377914
17.128000671044 0.210620476304734
17.1440006718039 0.641689901645738
17.1600006725639 0.314291925175206
17.1760006733239 0.730308244765708
17.1920006740838 0.593731532587344
17.2080006748438 0.437143908985509
17.2240006756037 0.636801878829009
17.2400006763637 1.25297755682735
17.2560006771237 0.960416988443424
17.2720006778836 1.01301535504608
17.2880006786436 1.02295598889458
17.3040006794035 0.565192257494641
17.3200006801635 0.882487527377578
17.3360006809235 0.835049275206797
17.3520006816834 0.700290880898998
17.3680006824434 0.603731716881007
17.3840006832033 0.671376742599036
17.4000006839633 0.774748728254568
17.4160006847233 0.678551276446759
17.4320006854832 0.960482449147253
17.4480006862432 0.582733062716021
17.4640006870031 0.635293424836253
17.4800006877631 1.12959579153674
17.4960006885231 1.34047145332367
17.512000689283 0.996100696613008
17.528000690043 0.945460406120312
17.5440006908029 0.908088233684896
17.5600006915629 1.05803183183638
17.5760006923228 1.17060313578317
17.5920006930828 1.35095875376436
17.6080006938428 1.59178414011607
17.6240006946027 2.0032026558662
17.6400006953627 2.07730261540594
17.6560006961226 1.97854242910174
17.6720006968826 1.98947263295863
17.6880006976426 2.63527971348796
17.7040006984025 3.12639413312638
17.7200006991625 3.00334339062756
17.7360006999224 2.87856325004184
17.7520007006824 2.81206329515145
17.7680007014424 2.36917268620428
17.7840007022023 2.02045456383677
17.8000007029623 1.8013391102867
17.8160007037222 1.77299693892193
17.8320007044822 1.50176676952589
17.8480007052422 1.43622349238213
17.8640007060021 1.07761186580003
17.8800007067621 1.17491542655982
17.896000707522 0.93186332049902
17.912000708282 1.00710413245061
17.9280007090419 0.876499697147133
17.9440007098019 1.06052062401322
17.9600007105619 1.03147695755268
17.9760007113218 0.713930875660618
17.9920007120818 0.757557042784383
18.0080007128417 1.07900609468923
18.0240007136017 1.22662376581807
18.0400007143617 1.26623732543354
18.0560007151216 0.750307900957266
18.0720007158816 0.637832966923258
18.0880007166415 0.707095987468661
18.1040007174015 0.726970240963809
18.1200007181615 0.93306643279863
18.1360007189214 0.680286979446092
18.1520007196814 0.812259330840242
18.1680007204413 0.975081863265387
18.1840007212013 0.911910274877788
18.2000007219613 0.888718354223207
18.2160007227212 1.32745430299653
18.2320007234812 1.00784148827508
18.2480007242411 0.793280944458281
18.2640007250011 0.672131985923227
18.2800007257611 1.20714118001477
18.296000726521 0.804356514052437
18.312000727281 0.602566068318317
18.3280007280409 0.838199624826795
18.3440007288009 1.07996162601327
18.3600007295608 1.17067197147621
18.3760007303208 1.43204747280113
18.3920007310808 1.3617638874806
18.4080007318407 1.00862298897861
18.4240007326007 0.689895341196617
18.4400007333606 0.781766513288864
18.4560007341206 0.923117394080564
18.4720007348806 0.592383749382228
18.4880007356405 0.537466489787149
18.5040007364005 0.897748197558053
18.5200007371604 0.837019005060667
18.5360007379204 1.00286017947304
18.5520007386804 0.778330373098011
18.5680007394403 0.673555423263257
18.5840007402003 0.500607432879854
18.6000007409602 0.586301390692179
18.6160007417202 0.660918429757261
18.6320007424802 0.735625557035598
18.6480007432401 0.734845600882939
18.6640007440001 1.12687898792985
18.68000074476 1.03984323087716
18.69600074552 0.967849790128546
18.71200074628 1.16967035371195
18.7280007470399 1.29020142097552
18.7440007477999 1.27654124385432
18.7600007485598 0.918526161720433
18.7760007493198 1.14457250825175
18.7920007500797 0.93804620197471
18.8080007508397 0.9687366201344
18.8240007515997 0.708828224115707
18.8400007523596 0.786667358473269
18.8560007531196 0.746161993952604
18.8720007538795 0.776103899615031
18.8880007546395 0.355136656845622
18.9040007553995 0.301703291421863
18.9200007561594 0.653076884330079
18.9360007569194 0.655068765220979
18.9520007576793 0.623630420931945
18.9680007584393 0.441085957151878
18.9840007591993 0.529937589390234
19.0000007599592 0.639806193003271
19.0160007607192 0.499149225731411
19.0320007614791 0.36905075692484
19.0480007622391 0.354281421847449
19.0640007629991 0.681265130946707
19.080000763759 0.888080024905565
19.096000764519 0.560448439949126
19.1120007652789 0.419837195270557
19.1280007660389 0.595314839585178
19.1440007667989 0.912132388889989
19.1600007675588 0.797029273693883
19.1760007683188 0.601509041903433
19.1920007690787 0.663117421651179
19.2080007698387 0.846905550207127
19.2240007705986 0.95465044064266
19.2400007713586 0.825551867020386
19.2560007721186 0.972154325600694
19.2720007728785 0.998438716282318
19.2880007736385 0.908268318869953
19.3040007743984 0.770006154353086
19.3200007751584 0.818321368932049
19.3360007759184 0.955270066694692
19.3520007766783 1.2365257189373
19.3680007774383 0.652982691477574
19.3840007781982 0.793330591422772
19.4000007789582 0.994753460590267
19.4160007797182 0.711289269447195
19.4320007804781 0.845205638295311
19.4480007812381 0.901853792205176
19.464000781998 1.01873517377863
19.480000782758 1.14614557004463
19.496000783518 1.06896263091142
19.5120007842779 0.827620268233756
19.5280007850379 1.05704727189868
19.5440007857978 1.25986364869819
19.5600007865578 1.52705086376559
19.5760007873177 1.7704876081238
19.5920007880777 2.0584840205773
19.6080007888377 2.04061736612499
19.6240007895976 2.15840892987639
19.6400007903576 2.53055713788383
19.6560007911175 3.00174112922517
19.6720007918775 2.99622679292497
19.6880007926375 3.32721872174933
19.7040007933974 3.4502842033748
19.7200007941574 4.21969599634157
19.7360007949173 4.37125089665161
19.7520007956773 4.39069779220105
19.7680007964373 4.46787030049185
19.7840007971972 4.95041590249501
19.8000007979572 5.04232245571013
19.8160007987171 5.55787259918205
19.8320007994771 5.34052322057421
19.8480008002371 5.3406157043709
19.864000800997 5.49282499524016
19.880000801757 5.30512017588363
19.8960008025169 4.97130663062098
19.9120008032769 5.06533290785173
19.9280008040369 4.89442235134034
19.9440008047968 4.80567895931832
19.9600008055568 4.46812125157274
19.9760008063167 4.25828174896519
19.9920008070767 4.34893730137607
20.0080008078366 4.44938520053683
20.0240008085966 4.36063927130331
20.0400008093566 4.03664491474467
20.0560008101165 3.84473187543111
20.0720008108765 3.79808604277967
20.0880008116364 4.11985974745312
20.1040008123964 3.36373447801812
20.1200008131564 3.49533712013183
20.1360008139163 3.54826270773782
20.1520008146763 3.92286417872983
20.1680008154362 3.52303006903796
20.1840008161962 3.73449053878476
20.2000008169562 3.1508878309647
20.2160008177161 3.23603250426576
20.2320008184761 3.63101355981099
20.248000819236 3.70980366776603
20.264000819996 3.66112810013361
20.280000820756 3.2120116758444
20.2960008215159 3.49856047264956
20.3120008222759 3.94416986041132
20.3280008230358 3.30903092150886
20.3440008237958 3.07054038236819
20.3600008245558 3.41803054672505
20.3760008253157 3.27612529823491
20.3920008260757 3.23575977606149
20.4080008268356 3.12369129219457
20.4240008275956 3.21608079471089
20.4400008283555 2.62394868030559
20.4560008291155 3.1177521856496
20.4720008298755 2.56987061025714
20.4880008306354 2.91615133408662
20.5040008313954 3.54321843882099
20.5200008321553 3.24047765740589
20.5360008329153 3.04399012811713
20.5520008336753 3.30268444512029
20.5680008344352 3.2918168622225
20.5840008351952 3.2694876273289
20.6000008359551 3.71487946232684
20.6160008367151 3.82461681079277
20.6320008374751 3.49749971910992
20.648000838235 4.27725872051634
20.664000838995 4.58172664484788
20.6800008397549 4.8476808350312
20.6960008405149 5.10768240520201
20.7120008412749 5.63323978990808
20.7280008420348 6.43825832375936
20.7440008427948 7.92759352851604
20.7600008435547 10.1472091572041
20.7760008443147 13.4356203135456
20.7920008450747 17.8545929615546
20.8080008458346 22.9883024790338
20.8240008465946 26.2763928595858
20.8400008473545 22.4939403427784
20.8560008481145 17.2608588254256
20.8720008488744 15.6256414590201
20.8880008496344 12.7274392467068
20.9040008503944 7.71459490913194
20.9200008511543 5.70888752646176
20.9360008519143 4.79100687050587
20.9520008526742 4.0681432365273
20.9680008534342 3.747700544374
20.9840008541942 2.9575701701016
21.0000008549541 2.78046843220194
21.0160008557141 3.3311294226002
21.032000856474 3.46100501264933
21.048000857234 3.00189136851902
21.064000857994 3.13862629092109
21.0800008587539 3.22749280942574
21.0960008595139 3.25538153454651
21.1120008602738 3.29145714864945
21.1280008610338 3.12073071234628
21.1440008617938 2.88639062024524
21.1600008625537 2.68226844203227
21.1760008633137 2.76040317218874
21.1920008640736 2.85372203490907
21.2080008648336 2.8558612586635
21.2240008655935 2.71736270067544
21.2400008663535 2.60076301949027
21.2560008671135 2.78762005072255
21.2720008678734 2.87221655574727
21.2880008686334 2.87493876469184
21.3040008693933 3.25713656670298
21.3200008701533 2.45290611051227
21.3360008709133 2.744748936595
21.3520008716732 2.79250330588755
21.3680008724332 2.70827511884647
21.3840008731931 2.66277507663097
21.4000008739531 2.80891761209378
21.4160008747131 2.60575764406552
21.432000875473 3.00962257412655
21.448000876233 2.56231858698338
21.4640008769929 2.34863596787102
21.4800008777529 2.41996943439621
21.4960008785129 2.44801009544119
21.5120008792728 2.57590854686568
21.5280008800328 2.26894233549376
21.5440008807927 2.04947176057877
21.5600008815527 2.29138853068437
21.5760008823127 2.37490584394792
21.5920008830726 1.77481916636455
21.6080008838326 2.01800660293039
21.6240008845925 2.09694142379549
21.6400008853525 2.52410058618666
21.6560008861124 2.16425948965441
21.6720008868724 1.96299735766161
21.6880008876324 1.95444541320529
21.7040008883923 2.03768491947714
21.7200008891523 1.96691386038472
21.7360008899122 1.96201721271168
21.7520008906722 1.68690244362639
21.7680008914322 2.00499420045851
21.7840008921921 1.72814459387931
21.8000008929521 1.70592035388423
21.816000893712 1.63944492845893
21.832000894472 1.81982722359718
21.848000895232 1.62477361079947
21.8640008959919 1.6177719182936
21.8800008967519 1.79346363887304
21.8960008975118 1.86637730765388
21.9120008982718 1.69660082438275
21.9280008990318 2.15992658404894
21.9440008997917 2.36014563544408
21.9600009005517 1.56320523761832
21.9760009013116 1.61382805616714
21.9920009020716 1.62888204282302
22.0080009028316 1.81890796441473
22.0240009035915 1.6908798951715
22.0400009043515 1.75092383226313
22.0560009051114 1.60642230456643
22.0720009058714 1.58775390525259
22.0880009066313 1.12619193244338
22.1040009073913 1.48518490111956
22.1200009081513 1.10278836667639
22.1360009089112 1.22289749635358
22.1520009096712 0.828579769986146
22.1680009104311 1.46940255805527
22.1840009111911 1.28745027622739
22.2000009119511 1.15330735015389
22.216000912711 0.886497778775053
22.232000913471 1.1527027619127
22.2480009142309 1.21963303824857
22.2640009149909 1.24297693441073
22.2800009157509 1.32701938964553
22.2960009165108 1.12758430974247
22.3120009172708 0.923300536040219
22.3280009180307 0.995011249981183
22.3440009187907 1.20108684531342
22.3600009195507 1.34338711241294
22.3760009203106 1.07202688980629
22.3920009210706 1.10138261731153
22.4080009218305 0.926287286757083
22.4240009225905 1.39447748880741
22.4400009233504 1.31164800068252
22.4560009241104 1.37346117905842
22.4720009248704 1.37567796567954
22.4880009256303 1.22459533347313
22.5040009263903 1.41448826957109
22.5200009271502 1.05963513398692
22.5360009279102 0.948333014126628
22.5520009286702 0.831539812467001
22.5680009294301 1.209420819664
22.5840009301901 1.34127101264226
22.60000093095 1.13358635993883
22.61600093171 1.10750843248492
22.63200093247 1.01477220164892
22.6480009332299 0.775470647658419
22.6640009339899 1.0363965549695
22.6800009347498 1.29801839928839
22.6960009355098 1.34815463091351
22.7120009362698 1.34362133951715
22.7280009370297 1.33756150646892
22.7440009377897 1.19618241344809
22.7600009385496 1.05481387786987
22.7760009393096 0.979226477076289
22.7920009400696 1.18057078325579
22.8080009408295 1.59847692228811
22.8240009415895 1.37997999987488
22.8400009423494 1.05690314510408
22.8560009431094 1.02284497485311
22.8720009438693 1.18938841584927
22.8880009446293 1.39187701958042
22.9040009453893 1.05996927816081
22.9200009461492 0.590392942925495
22.9360009469092 1.24383734468743
22.9520009476691 0.820568955824194
22.9680009484291 0.971497491653829
22.9840009491891 0.969634740369542
23.000000949949 1.24288239280008
23.016000950709 0.933555980067985
23.0320009514689 1.21650964982423
23.0480009522289 0.887267281736606
23.0640009529889 0.791544077146122
23.0800009537488 1.16870163838165
23.0960009545088 1.47487373642223
23.1120009552687 1.18005917495931
23.1280009560287 1.21450711465129
23.1440009567887 1.13756517667328
23.1600009575486 1.13281899627911
23.1760009583086 0.938620349559502
23.1920009590685 0.771231414449889
23.2080009598285 1.02358511231084
23.2240009605885 1.10481462147368
23.2400009613484 1.03404752077404
23.2560009621084 1.17465447678443
23.2720009628683 1.31003443818573
23.2880009636283 0.975433492674244
23.3040009643882 1.03519568345684
23.3200009651482 1.5013210976891
23.3360009659082 1.76058301558191
23.3520009666681 1.96376894573233
23.3680009674281 1.33144448010309
23.384000968188 1.4178608082253
23.400000968948 1.57357236034843
23.416000969708 1.56334138900648
23.4320009704679 1.19909655895893
23.4480009712279 1.46294240366185
23.4640009719878 0.89180442056415
23.4800009727478 0.887474926119753
23.4960009735078 0.98507715204748
23.5120009742677 1.00550892889855
23.5280009750277 0.977126412650505
23.5440009757876 0.978954687024239
23.5600009765476 0.99732579104582
23.5760009773076 0.9175025103545
23.5920009780675 1.16566460584511
23.6080009788275 0.920097470394263
23.6240009795874 0.725790927926089
23.6400009803474 0.88847865218241
23.6560009811074 0.829220544539782
23.6720009818673 0.886160163962052
23.6880009826273 1.50639033257721
23.7040009833872 1.30516175050159
23.7200009841472 1.20966902183422
23.7360009849071 1.66575879607649
23.7520009856671 0.966774307925944
23.7680009864271 0.701427618174871
23.784000987187 1.21272539642052
23.800000987947 1.46179310905143
23.8160009887069 1.48009819533971
23.8320009894669 1.22042097510921
23.8480009902269 1.0773626960343
23.8640009909868 0.99880091297089
23.8800009917468 0.818973885070192
23.8960009925067 1.08695733803835
23.9120009932667 1.03552313235001
23.9280009940267 0.723028366302931
23.9440009947866 0.91094646497202
23.9600009955466 0.99580395245879
23.9760009963065 1.14212215629468
23.9920009970665 1.44238610618391
24.0080009978265 1.60766720028491
24.0240009985864 1.31674931087593
24.0400009993464 1.49215695619076
24.0560010001063 0.911533999629069
24.0720010008663 1.44965618383309
24.0880010016262 1.12837158936653
24.1040010023862 1.15879272611108
24.1200010031462 1.1717012349948
24.1360010039061 0.907854373749436
24.1520010046661 1.43366151769924
24.168001005426 1.03334904786673
24.184001006186 1.15688159309709
24.200001006946 1.4652008334842
24.2160010077059 1.83307901023484
24.2320010084659 1.36644687153373
24.2480010092258 1.53202115515999
24.2640010099858 1.19973029544335
24.2800010107458 1.54578814361606
24.2960010115057 1.25041363115254
24.3120010122657 1.53657309175879
24.3280010130256 1.43046486832234
24.3440010137856 1.67193575631106
24.3600010145456 1.48291528105811
24.3760010153055 1.46241668611067
24.3920010160655 1.6327545923944
24.4080010168254 1.46335529649996
24.4240010175854 1.40135191832187
24.4400010183454 1.79970227953051
24.4560010191053 1.8068370453875
24.4720010198653 1.62069565672518
24.4880010206252 1.99861454388921
24.5040010213852 2.10982477822113
24.5200010221451 1.9921391691015
24.5360010229051 2.16641421054166
24.5520010236651 2.45361476522139
24.568001024425 1.97021505585253
24.584001025185 2.2509741059728
24.6000010259449 2.542364342419
24.6160010267049 2.62072210290359
24.6320010274649 2.52701573655871
24.6480010282248 3.48102581468302
24.6640010289848 3.68944930162639
24.6800010297447 3.75628134913501
24.6960010305047 4.43364015272859
24.7120010312647 5.08826143801251
24.7280010320246 5.98455159045488
24.7440010327846 6.66249429788313
24.7600010335445 7.29793340683249
24.7760010343045 9.01812732841497
24.7920010350645 11.4108433142787
24.8080010358244 13.866326482663
24.8240010365844 15.2638033170046
24.8400010373443 15.0439401158825
24.8560010381043 14.8979031685024
24.8720010388643 14.1671602339896
24.8880010396242 12.0620715600893
24.9040010403842 11.0646754788036
24.9200010411441 9.8053876837373
24.9360010419041 8.53585229838453
24.952001042664 7.43349483035131
24.968001043424 6.16946119450443
24.984001044184 5.67317601429064
25.0000010449439 5.18347942730112
25.0160010457039 4.90159846120157
25.0320010464638 5.12849427894549
25.0480010472238 4.59156494225455
25.0640010479838 3.94799761818691
25.0800010487437 4.06724057781289
25.0960010495037 3.41639201227389
25.1120010502636 3.78481194627983
25.1280010510236 3.85867654198118
25.1440010517836 4.09007598257544
25.1600010525435 3.95771840073097
25.1760010533035 3.705703709259
25.1920010540634 3.67006531705217
25.2080010548234 3.39522051039746
25.2240010555834 3.79222442238524
25.2400010563433 3.73724881489594
25.2560010571033 4.06357802545831
25.2720010578632 4.3658790511958
25.2880010586232 3.62621837010176
25.3040010593832 2.95597192428482
25.3200010601431 3.26914185377745
25.3360010609031 2.82010302277816
25.352001061663 3.06228118020169
25.368001062423 2.91295891497164
25.3840010631829 2.67427470388738
25.4000010639429 2.41484679881677
25.4160010647029 2.25355513700655
25.4320010654628 2.32049962309901
25.4480010662228 2.22354527525413
25.4640010669827 2.29460800049913
25.4800010677427 2.15717888838354
25.4960010685027 2.13999741234488
25.5120010692626 2.35833038688431
25.5280010700226 1.8270241013491
25.5440010707825 1.74393018886339
25.5600010715425 1.27775767264032
25.5760010723025 1.71498473871553
25.5920010730624 1.78435347280479
25.6080010738224 2.02809096389433
25.6240010745823 1.93082034771456
25.6400010753423 1.53308698861991
25.6560010761023 1.94330774468822
25.6720010768622 1.74046403623946
25.6880010776222 1.65202445683367
25.7040010783821 1.95057530330212
25.7200010791421 2.09635812482144
25.736001079902 2.32583535772498
25.752001080662 1.93821110347221
25.768001081422 1.79968960037591
25.7840010821819 1.99758869575542
25.8000010829419 1.97515857009715
25.8160010837018 1.91398615122555
25.8320010844618 1.86817353274462
25.8480010852218 1.57533608349337
25.8640010859817 1.88591552359557
25.8800010867417 1.93026994227197
25.8960010875016 2.13814000867254
25.9120010882616 1.86168770785525
25.9280010890216 1.92943931753544
25.9440010897815 2.21253021418833
25.9600010905415 2.13372554476716
25.9760010913014 1.97022007930676
25.9920010920614 1.75549348903013
26.0080010928214 2.15169127217249
26.0240010935813 2.14221237599121
26.0400010943413 1.85856332442267
26.0560010951012 2.16816172079981
26.0720010958612 2.01588537566068
26.0880010966212 1.80481022364962
26.1040010973811 1.70517025741652
26.1200010981411 1.98941238459146
26.136001098901 2.46299619365304
26.152001099661 2.1467708178197
26.1680011004209 2.23283272337449
26.1840011011809 2.46061021321734
26.2000011019409 2.40047850048202
26.2160011027008 2.67422326798788
26.2320011034608 3.09916673493075
26.2480011042207 2.75846768092189
26.2640011049807 3.01183078247793
26.2800011057407 3.27720297111201
26.2960011065006 3.1485395757851
26.3120011072606 3.73088702131856
26.3280011080205 3.7824483861577
26.3440011087805 3.50852292194095
26.3600011095405 3.5686419999864
26.3760011103004 4.3864691311903
26.3920011110604 4.8513489817649
26.4080011118203 5.43192656802457
26.4240011125803 5.62034745627056
26.4400011133403 6.54728391478427
26.4560011141002 7.85999961410437
26.4720011148602 9.30163648128031
26.4880011156201 11.5807817829714
26.5040011163801 15.3247003852439
26.5200011171401 21.1266884901798
26.5360011179 30.0993516310963
26.55200111866 43.575416830227
26.5680011194199 63.8342940739627
26.5840011201799 89.415597462482
26.6000011209398 103.219090168087
26.6160011216998 88.3615577005397
26.6320011224598 65.9585530214576
26.6480011232197 59.3076440677434
26.6640011239797 59.3703986787015
26.6800011247396 49.6015628539632
26.6960011254996 32.3757681296907
26.7120011262596 20.5693447299104
26.7280011270195 15.096179156472
26.7440011277795 12.4724794088429
26.7600011285394 11.1740951575134
26.7760011292994 10.1719014639282
26.7920011300594 8.94676053484521
26.8080011308193 7.93275611735728
26.8240011315793 6.26016844076051
26.8400011323392 6.02500348343901
26.8560011330992 5.51265230702014
26.8720011338592 4.7739345046791
26.8880011346191 4.47350036187423
26.9040011353791 3.71479798423329
26.920001136139 3.20305615170909
26.936001136899 3.30626214684006
26.952001137659 3.01068604251901
26.9680011384189 2.81882677215706
26.9840011391789 3.0387439282307
27.0000011399388 2.77656656872466
27.0160011406988 2.19015024817376
27.0320011414587 2.44860907180771
27.0480011422187 2.6160197543614
27.0640011429787 2.00309692223673
27.0800011437386 2.07026164639828
27.0960011444986 2.3244188659547
27.1120011452585 2.05468755530698
27.1280011460185 1.79760962939145
27.1440011467785 1.77018341442701
27.1600011475384 1.85402719988368
27.1760011482984 1.78889554511
27.1920011490583 1.27285718332407
27.2080011498183 1.92024185581087
27.2240011505783 2.26058858723114
27.2400011513382 1.75353648191291
27.2560011520982 2.02122303964068
27.2720011528581 1.48378342421672
27.2880011536181 1.67213481451735
27.3040011543781 1.54936803002737
27.320001155138 1.33707679457811
27.336001155898 1.55193092866471
27.3520011566579 1.88002002250821
27.3680011574179 2.04125273404783
27.3840011581778 1.92413325108553
27.4000011589378 2.13298050810029
27.4160011596978 1.99978522958643
27.4320011604577 1.78293713924898
27.4480011612177 1.57963432585805
27.4640011619776 1.83868570344775
27.4800011627376 1.54149079152451
27.4960011634976 1.52397413456751
27.5120011642575 1.67857052341187
27.5280011650175 1.55354484904374
27.5440011657774 1.69427491209823
27.5600011665374 1.4960725072319
27.5760011672974 1.13957763821476
27.5920011680573 1.48804319577021
27.6080011688173 1.86907833385595
27.6240011695772 1.59769459367821
27.6400011703372 1.53176948909841
27.6560011710972 1.82901328291577
27.6720011718571 1.99756773216101
27.6880011726171 2.03777071713936
27.704001173377 2.18289056261211
27.720001174137 2.40447842082714
27.7360011748969 2.06533892687941
27.7520011756569 1.80697978371949
27.7680011764169 1.67730792720973
27.7840011771768 1.76923186662377
27.8000011779368 1.89357032601485
27.8160011786967 1.83197763850108
27.8320011794567 2.22392850401044
27.8480011802167 2.37658901661122
27.8640011809766 2.47323605957443
27.8800011817366 2.61420034427146
27.8960011824965 2.56298610942391
27.9120011832565 2.30124274025642
27.9280011840165 1.91675400924622
27.9440011847764 1.92822828179969
27.9600011855364 1.75540950882413
27.9760011862963 2.10030153837357
27.9920011870563 1.9387210057883
28.0080011878163 1.36498310904622
28.0240011885762 1.58460019592041
28.0400011893362 1.58310927192613
28.0560011900961 1.37793233655072
28.0720011908561 1.4482609191255
28.0880011916161 1.01234190470205
28.104001192376 0.951989016097897
28.120001193136 0.968130319097251
28.1360011938959 0.867349466456809
28.1520011946559 1.35005217805161
28.1680011954158 0.976555743479323
28.1840011961758 1.03866197596396
28.2000011969358 0.660416496832165
28.2160011976957 0.996896043361976
28.2320011984557 1.16413763886537
28.2480011992156 1.02190739012249
28.2640011999756 0.935503474295772
28.2800012007356 1.2063252254652
28.2960012014955 0.804267302386021
28.3120012022555 1.05465891541973
28.3280012030154 0.935643373084383
28.3440012037754 0.832050764523742
28.3600012045354 1.1760845118074
28.3760012052953 0.75913026353683
28.3920012060553 0.768029020260003
28.4080012068152 1.06033058765883
28.4240012075752 0.974507304810913
28.4400012083352 0.51957092966138
28.4560012090951 0.578102111324905
28.4720012098551 0.934904364193993
28.488001210615 0.969431697885985
28.504001211375 0.789575514211765
28.520001212135 0.943106860510372
28.5360012128949 0.844798625967743
28.5520012136549 1.08461867287414
28.5680012144148 0.864003623257664
28.5840012151748 0.906486701533427
28.6000012159347 1.20248952453681
28.6160012166947 1.14757860144181
28.6320012174547 0.980357662866001
28.6480012182146 1.08672813255767
28.6640012189746 1.07032363247466
28.6800012197345 0.827607755489477
28.6960012204945 0.942490280000464
28.7120012212545 0.724048452116162
28.7280012220144 0.78362255609538
28.7440012227744 0.635046742414658
28.7600012235343 0.66259044414812
28.7760012242943 0.916523281965147
28.7920012250543 0.923335252041183
28.8080012258142 0.992746590056639
28.8240012265742 0.972568973030989
28.8400012273341 1.07342235021638
28.8560012280941 1.3843070925527
28.8720012288541 1.34968834277922
28.888001229614 0.915674553120886
28.904001230374 0.90992677548537
28.9200012311339 0.728262395348497
28.9360012318939 0.832836530421008
28.9520012326538 0.778511109617567
28.9680012334138 0.832702794465049
28.9840012341738 1.02538174386289
29.0000012349337 1.267810956677
29.0160012356937 1.11062455486817
29.0320012364536 1.52197051121316
29.0480012372136 1.56980391698859
29.0640012379736 1.88530276673232
29.0800012387335 1.45827846666463
29.0960012394935 1.25308843338375
29.1120012402534 1.51844467054847
29.1280012410134 1.09440819968764
29.1440012417734 1.11346326586331
29.1600012425333 1.13279162489343
29.1760012432933 0.891958966809605
29.1920012440532 0.87273107872135
29.2080012448132 0.880398750343594
29.2240012455732 0.996047005997318
29.2400012463331 0.460903609062457
29.2560012470931 0.603791884748925
29.272001247853 0.583728210739824
29.288001248613 0.951126320772748
29.304001249373 0.483764946519325
29.3200012501329 0.769150838387783
29.3360012508929 0.809498398104471
29.3520012516528 0.759501723768945
29.3680012524128 0.43120558062184
29.3840012531727 0.207258036974205
29.4000012539327 0.548202338623624
29.4160012546927 0.668988278984805
29.4320012554526 0.785947353379913
29.4480012562126 0.666851029335779
29.4640012569725 0.654862945557224
29.4800012577325 0.834527652186464
29.4960012584925 1.00744848671235
29.5120012592524 0.939437724061244
29.5280012600124 0.570324536546519
29.5440012607723 0.771060548328026
29.5600012615323 0.709927541814735
29.5760012622923 0.620164806392345
29.5920012630522 0.631007026459504
29.6080012638122 0.437847878370199
29.6240012645721 0.93297363857373
29.6400012653321 0.976316227038882
29.6560012660921 0.880671315117863
29.672001266852 0.722657859956134
29.688001267612 0.645787126235793
29.7040012683719 0.848313585273936
29.7200012691319 0.680878347055452
29.7360012698919 0.745499092872772
29.7520012706518 0.91270080662554
29.7680012714118 0.481074582966763
29.7840012721717 1.02371824632198
29.8000012729317 1.15340428749068
29.8160012736916 1.02132430215977
29.8320012744516 0.994511022316208
29.8480012752116 1.08220146385214
29.8640012759715 0.786558104448364
29.8800012767315 0.684598793346431
29.8960012774914 1.02157403473752
29.9120012782514 0.927452816828534
29.9280012790114 0.692314824276653
29.9440012797713 0.626003899100547
29.9600012805313 0.230361705780312
29.9760012812912 0.879072871323613
29.9920012820512 1.05924623441761
30.0080012828112 1.00118292928908
30.0240012835711 0.82888129243325
30.0400012843311 0.415658820112438
30.056001285091 0.434141057394578
30.072001285851 0.761661878142788
30.088001286611 0.975872065490343
30.1040012873709 0.465351499211884
30.1200012881309 0.527330891960731
30.1360012888908 0.893912952854021
30.1520012896508 0.559126172168931
30.1680012904107 0.869269424743234
30.1840012911707 0.982896683113137
30.2000012919307 0.602119167673057
30.2160012926906 0.546312315009156
30.2320012934506 0.522571077805058
30.2480012942105 0.628938314905881
30.2640012949705 0.965187391740736
30.2800012957305 0.98042603837607
30.2960012964904 0.800637827743671
30.3120012972504 0.98042527775334
30.3280012980103 0.796178209887574
30.3440012987703 0.89872735500014
30.3600012995303 1.03096610133201
30.3760013002902 0.595893268886313
30.3920013010502 0.965120642952885
30.4080013018101 0.874816511780299
30.4240013025701 0.97133082376081
30.4400013033301 0.952366680537255
30.45600130409 0.695319131617088
30.47200130485 0.684653942680881
30.4880013056099 0.561154471351753
30.5040013063699 0.721326167432522
30.5200013071299 0.771840348019489
30.5360013078898 0.601040969346676
30.5520013086498 0.903022602719005
30.5680013094097 0.896335527292403
30.5840013101697 0.794135826837185
30.6000013109296 0.548726788000535
30.6160013116896 0.653442855132261
30.6320013124496 0.802734743210191
30.6480013132095 0.601514803634709
30.6640013139695 0.656050414344169
30.6800013147294 0.553268857096194
30.6960013154894 0.830032220599969
30.7120013162494 0.929003702046303
30.7280013170093 0.679879583081201
30.7440013177693 0.551075069702585
30.7600013185292 0.74844111352748
30.7760013192892 0.631157558705893
30.7920013200492 0.695442029264005
30.8080013208091 0.725739984904927
30.8240013215691 0.416631707974338
30.840001322329 0.709043942033386
30.856001323089 0.792511111419336
30.872001323849 0.964500326363276
30.8880013246089 0.405805268100157
30.9040013253689 0.691029918334872
30.9200013261288 0.632902400231483
30.9360013268888 0.81876015016738
30.9520013276488 0.823755862861561
30.9680013284087 0.598315844675247
30.9840013291687 0.50973550747317
31.0000013299286 0.762711315291407
31.0160013306886 0.890012100157175
31.0320013314485 0.802730691188503
31.0480013322085 0.867177974056348
31.0640013329685 0.758510151984935
31.0800013337284 0.834803622718678
31.0960013344884 1.03154689901528
31.1120013352483 0.884558111593809
31.1280013360083 1.3056580491392
31.1440013367683 1.05062153162746
31.1600013375282 1.0913715006235
31.1760013382882 0.791902601914671
31.1920013390481 0.645180373156539
31.2080013398081 0.904326502349364
31.2240013405681 1.09716568284852
31.240001341328 1.11840808821669
31.256001342088 0.879151173918023
31.2720013428479 0.951869588644142
31.2880013436079 0.646949380780678
31.3040013443679 1.12928663027541
31.3200013451278 1.00375120435731
31.3360013458878 1.03764415194819
31.3520013466477 0.662439259240242
31.3680013474077 0.58636068174691
31.3840013481677 0.781002940424049
31.4000013489276 0.559273194775501
31.4160013496876 0.818731802506615
31.4320013504475 0.627875822739393
31.4480013512075 0.726227511668898
31.4640013519674 1.01662678438712
31.4800013527274 0.950467461325098
31.4960013534874 0.731781407427351
31.5120013542473 0.785549020282481
31.5280013550073 0.556386454893924
31.5440013557672 0.341984681509586
31.5600013565272 0.715247352696482
31.5760013572872 0.755719208612833
31.5920013580471 0.456672889994579
31.6080013588071 0.265869493164521
31.624001359567 0.700160973938997
31.640001360327 0.743905761877416
31.656001361087 0.983538040232306
31.6720013618469 0.970948318246704
31.6880013626069 0.507492915268425
31.7040013633668 0.694133203604384
31.7200013641268 0.417614381198032
31.7360013648868 0.691232916732024
31.7520013656467 0.583367495891099
31.7680013664067 0.908270966221802
31.7840013671666 1.11681281577362
31.8000013679266 0.566978095793184
31.8160013686865 0.454127451675664
31.8320013694465 0.634084847934631
31.8480013702065 0.804577278044388
31.8640013709664 1.01755126060245
31.8800013717264 0.731522516951529
31.8960013724863 0.745488887365171
31.9120013732463 0.658484307574244
31.9280013740063 0.756476380720011
31.9440013747662 0.493282839945175
31.9600013755262 0.734290790248626
31.9760013762861 0.76918455548065
31.9920013770461 0.862398353067444
32.0080013778061 0.665578965784776
32.024001378566 0.966560782958132
32.040001379326 0.68624199466844
32.0560013800859 0.79513523281686
32.0720013808459 1.03387847113402
32.0880013816059 0.953951414675544
32.1040013823658 0.522351603019292
32.1200013831258 0.599909536675765
32.1360013838857 0.173611251117491
32.1520013846457 0.709309425842758
32.1680013854057 0.536898052417602
32.1840013861656 0.333775124845735
32.2000013869256 0.625003500547364
32.2160013876855 0.637202540039271
32.2320013884455 0.813366569531645
32.2480013892054 0.902632625115551
32.2640013899654 0.377355191900858
32.2800013907254 0.446136171911375
32.2960013914853 0.7451277700498
32.3120013922453 0.806039052946589
32.3280013930052 0.275996489576447
32.3440013937652 0.742201488813308
32.3600013945252 1.01928020800596
32.3760013952851 0.831053918483269
32.3920013960451 0.614139912262898
32.408001396805 0.784625844359319
32.424001397565 0.73588469787094
32.440001398325 0.489952042325163
32.4560013990849 0.557509783600651
32.4720013998449 0.558676337055479
32.4880014006048 0.589901415070162
32.5040014013648 0.432025866037963
32.5200014021248 0.412274441480064
32.5360014028847 0.638264838302432
32.5520014036447 0.559113343019627
32.5680014044046 0.596321794356263
32.5840014051646 1.07574786650298
32.6000014059246 0.599115057726684
32.6160014066845 1.22852967527161
32.6320014074445 0.625331746063364
32.6480014082044 0.718428749018374
32.6640014089644 0.62968818060076
32.6800014097243 0.801301236600946
32.6960014104843 0.640399469516134
32.7120014112443 0.876101937053222
32.7280014120042 0.670944504794098
32.7440014127642 0.621521426538241
32.7600014135241 0.862532598684651
32.7760014142841 0.797959031632071
32.7920014150441 0.601230731848072
32.808001415804 0.848527967170498
32.824001416564 1.02261898829751
32.8400014173239 0.991363808538103
32.8560014180839 0.757676231844738
32.8720014188439 0.87453356452702
32.8880014196038 0.615247629730547
32.9040014203638 0.740440994499433
32.9200014211237 0.874436328696433
32.9360014218837 0.548263795833634
32.9520014226437 0.571909754312266
32.9680014234036 0.925459920056347
32.9840014241636 0.70349515256756
33.0000014249235 0.587187799152129
33.0160014256835 0.474903349222803
33.0320014264435 0.916872884365331
33.0480014272034 0.908060672427228
33.0640014279634 0.741580617522475
33.0800014287233 0.855499740463354
33.0960014294833 0.719122677903532
33.1120014302432 0.511355964957264
33.1280014310032 0.560236655718247
33.1440014317632 0.799532518072219
33.1600014325231 0.907804347605145
33.1760014332831 0.771109416738195
33.192001434043 0.850332527677015
33.208001434803 1.02458907780121
33.224001435563 0.674768654415038
33.2400014363229 0.64460578667834
33.2560014370829 0.733421244288545
33.2720014378428 0.69069316855748
33.2880014386028 0.938566591758517
33.3040014393628 1.04223667487732
33.3200014401227 0.692119353387647
33.3360014408827 1.02770170563348
33.3520014416426 1.02184927295874
33.3680014424026 1.2207364689817
33.3840014431626 1.18351322984509
33.4000014439225 0.705790115271517
33.4160014446825 1.01334837133261
33.4320014454424 0.454535294869989
33.4480014462024 0.805769010705727
33.4640014469623 0.929511665320333
33.4800014477223 0.899356972631612
33.4960014484823 0.951836086895397
33.5120014492422 0.92350155494288
33.5280014500022 0.744844597343209
33.5440014507621 0.95162225361078
33.5600014515221 0.875598960053752
33.5760014522821 0.981979567136054
33.592001453042 0.578000644696457
33.608001453802 0.588472036324964
33.6240014545619 1.01404046371881
33.6400014553219 0.731708213114362
33.6560014560819 0.715584476697837
33.6720014568418 1.01306990809336
33.6880014576018 0.940544986562611
33.7040014583617 0.729164297859546
33.7200014591217 0.899455109006196
33.7360014598817 0.819907032758914
33.7520014606416 0
33.7680014614016 0.452758129493268
33.7840014621615 0.67551074261876
33.8000014629215 0.642986322047509
33.8160014636815 0.672505737771288
33.8320014644414 0.692341914386335
33.8480014652014 0.598546638333985
33.8640014659613 0.89034946861077
33.8800014667213 0.975599394076355
33.8960014674812 0.818961215919398
33.9120014682412 0.678309005311546
33.9280014690012 0.689744785009912
33.9440014697611 0.349192954872395
33.9600014705211 0.609375408498487
33.976001471281 0.933082686562983
33.992001472041 0.882398073105099
34.008001472801 0.586645923398342
34.0240014735609 0.865236763050246
34.0400014743209 0.701052669406246
34.0560014750808 0.60625427933248
34.0720014758408 0.466563277406852
34.0880014766008 0.757189246881519
34.1040014773607 1.08815538337135
34.1200014781207 0.795683521480866
34.1360014788806 0.622888707949811
34.1520014796406 0.388239032031271
34.1680014804006 0.464064151866892
34.1840014811605 0.510679729666369
34.2000014819205 0.403171906792979
34.2160014826804 0.892674240776191
34.2320014834404 0.770515114039232
34.2480014842004 1.06628038351079
34.2640014849603 0.651455729720194
34.2800014857203 1.0036566085573
34.2960014864802 0.853459627106038
34.3120014872402 0.505201238061424
34.3280014880001 0.806405618651149
34.3440014887601 1.56931087683924
34.3600014895201 0.848882786125514
34.37600149028 0.752975468939861
34.39200149104 1.29316392740508
34.4080014917999 1.26931713576367
34.4240014925599 0.979176451349861
34.4400014933199 1.40325596259773
34.4560014940798 1.65928811185708
34.4720014948398 1.27762165727145
34.4880014955997 1.91585326390449
34.5040014963597 1.77712141378683
34.5200014971197 1.83775671465382
34.5360014978796 1.79640350092708
34.5520014986396 1.80451036576214
34.5680014993995 1.96046903944557
34.5840015001595 2.09817556160324
34.6000015009195 2.22346172923246
34.6160015016794 2.04953856525949
34.6320015024394 2.07401314935871
34.6480015031993 2.26919002483604
34.6640015039593 2.19676946131871
34.6800015047193 2.11093215875023
34.6960015054792 2.3928598303558
34.7120015062392 2.34380234696012
34.7280015069991 2.37234023450284
34.7440015077591 2.41188074481989
34.760001508519 2.48374323794932
34.776001509279 2.80907319752951
34.792001510039 3.08708374588008
34.8080015107989 3.23209329949226
34.8240015115589 2.69031118066163
34.8400015123188 2.55318023394053
34.8560015130788 3.21965793610146
34.8720015138388 3.35530658499565
34.8880015145987 3.48660031527051
34.9040015153587 3.62374102109785
34.9200015161186 3.34334453020756
34.9360015168786 3.51785197155591
34.9520015176386 3.64933383252978
34.9680015183985 3.68572342633388
34.9840015191585 3.83369678401742
35.0000015199184 3.68488344966875
35.0160015206784 3.66424952084911
35.0320015214384 3.53074298904288
35.0480015221983 3.46224195959789
35.0640015229583 3.25780651045588
35.0800015237182 3.2173370240574
35.0960015244782 3.20379034906656
35.1120015252381 2.64023661670507
35.1280015259981 2.95705448150331
35.1440015267581 2.97399211525147
35.160001527518 2.51022286385243
35.176001528278 2.44612613679131
35.1920015290379 2.67672619709745
35.2080015297979 2.54636016015406
35.2240015305579 2.11107120808753
35.2400015313178 1.81685911230594
35.2560015320778 2.0336040057507
35.2720015328377 2.32845933717849
35.2880015335977 2.46841474332598
35.3040015343577 2.30738945196463
35.3200015351176 2.36678394693919
35.3360015358776 2.16596996070084
35.3520015366375 2.02740245725749
35.3680015373975 2.22846075038393
35.3840015381575 2.03786201240738
35.4000015389174 2.06585072958787
35.4160015396774 1.81533837155723
35.4320015404373 1.74909235747871
35.4480015411973 2.37119856715639
35.4640015419573 2.38663222036185
35.4800015427172 2.2281889277409
35.4960015434772 2.08044837382771
35.5120015442371 2.08450006098185
35.5280015449971 1.80910053460227
35.544001545757 1.39255584492069
35.560001546517 1.77168773515567
35.576001547277 2.10485454037305
35.5920015480369 2.10889869214992
35.6080015487969 2.18104506733222
35.6240015495568 1.99896884610906
35.6400015503168 1.83633709424361
35.6560015510768 2.15414838951988
35.6720015518367 1.9860045004972
35.6880015525967 2.04223597167022
35.7040015533566 1.95937552709324
35.7200015541166 1.89441413854531
35.7360015548766 1.80420153470872
35.7520015556365 2.08429057040933
35.7680015563965 1.85246376131966
35.7840015571564 2.15690711837976
35.8000015579164 2.23034911217268
35.8160015586764 2.1054270836985
35.8320015594363 2.40187982124677
35.8480015601963 2.2489313030318
35.8640015609562 2.36328751902945
35.8800015617162 2.24587670475637
35.8960015624762 2.2832988340912
35.9120015632361 2.66862384047442
35.9280015639961 2.38534208777258
35.944001564756 2.00597613742055
35.960001565516 2.22973107266652
35.9760015662759 2.67899583356936
35.9920015670359 2.36151945125227
36.0080015677959 2.32547235817276
36.0240015685558 2.0909310784813
36.0400015693158 2.14089747635186
36.0560015700757 2.23245687443692
36.0720015708357 2.23275316101219
36.0880015715957 1.9305475875935
36.1040015723556 1.75974446385395
36.1200015731156 1.64174513051057
36.1360015738755 1.71781339632654
36.1520015746355 2.00945908170764
36.1680015753955 1.86748250405358
36.1840015761554 1.37247193186289
36.2000015769154 1.9420115500709
36.2160015776753 1.95229370858635
36.2320015784353 1.73796266793294
36.2480015791953 1.72257733807136
36.2640015799552 1.76295095564573
36.2800015807152 1.9414697147749
36.2960015814751 1.89944613741271
36.3120015822351 1.8219296529095
36.328001582995 1.98947120085664
36.344001583755 2.13909519537725
36.360001584515 2.00105908371249
36.3760015852749 2.36853866702495
36.3920015860349 2.07190496484064
36.4080015867948 2.67752449794736
36.4240015875548 3.09605639767352
36.4400015883148 3.84859224995966
36.4560015890747 5.08919527718515
36.4720015898347 6.87687373609853
36.4880015905946 8.4111321637819
36.5040015913546 8.69247891333083
36.5200015921146 7.57888529394983
36.5360015928745 5.7881054955185
36.5520015936345 5.0984026966163
36.5680015943944 4.96856933725111
36.5840015951544 5.70679169245838
36.6000015959144 5.50073119357398
36.6160015966743 4.51051649473678
36.6320015974343 3.2352010061113
36.6480015981942 2.73127924372469
36.6640015989542 2.67572332347696
36.6800015997142 2.03579894805746
36.6960016004741 2.25403151307318
36.7120016012341 2.26699406850898
36.728001601994 2.16457646670125
36.744001602754 1.69342408956017
36.7600016035139 2.08986639111649
36.7760016042739 2.00056416462845
36.7920016050339 1.75890871187724
36.8080016057938 1.7723465115423
36.8240016065538 1.33608584519317
36.8400016073137 1.44729236108819
36.8560016080737 1.46323866890261
36.8720016088337 1.50012807287314
36.8880016095936 1.4940208637024
36.9040016103536 1.67520314761344
36.9200016111135 1.72104958690373
36.9360016118735 1.64579741213508
36.9520016126335 2.02769258450403
36.9680016133934 1.70717782028765
36.9840016141534 1.52245442274494
37.0000016149133 1.5741782601445
37.0160016156733 1.6230832398251
37.0320016164333 1.56303861439506
37.0480016171932 1.50458152519288
37.0640016179532 1.50865165380112
37.0800016187131 1.239116328627
37.0960016194731 0.924601840152616
37.1120016202331 0.942447077713765
37.128001620993 1.25584379645494
37.144001621753 1.22415510682069
37.1600016225129 1.21328428611909
37.1760016232729 0.994610120449292
37.1920016240328 0.977887808099045
37.2080016247928 1.40598828526847
37.2240016255528 1.39752186098884
37.2400016263127 1.374769291486
37.2560016270727 1.39258620515801
37.2720016278326 1.2141656474173
37.2880016285926 1.32706913252399
37.3040016293526 1.21297046884904
37.3200016301125 1.38753490936771
37.3360016308725 1.05340885907603
37.3520016316324 1.54821854235481
37.3680016323924 1.44818309460011
37.3840016331524 1.34438786782307
37.4000016339123 1.41248383839859
37.4160016346723 1.24885675161019
37.4320016354322 1.30028956314453
37.4480016361922 1.53957782124273
37.4640016369522 1.71712530523454
37.4800016377121 1.60258702931089
37.4960016384721 1.88471023269805
37.512001639232 1.41348321554489
37.528001639992 1.24225309250416
37.544001640752 1.48949413788219
37.5600016415119 1.99343836532714
37.5760016422719 2.02887837989079
37.5920016430318 2.06516509697556
37.6080016437918 2.09757844500641
37.6240016445517 2.44387312129594
37.6400016453117 2.15932988510899
37.6560016460717 2.13852395537793
37.6720016468316 2.64285369432771
37.6880016475916 2.69565133215233
37.7040016483515 2.38615619346001
37.7200016491115 2.59758583732153
37.7360016498715 2.03435181860103
37.7520016506314 1.99401716428949
37.7680016513914 2.44390031370539
37.7840016521513 1.90404595796845
37.8000016529113 1.87054067059514
37.8160016536713 1.84049413654327
37.8320016544312 2.09384187185503
37.8480016551912 1.65755061390527
37.8640016559511 1.72273908592155
37.8800016567111 1.74839649907433
37.8960016574711 1.33707569407086
37.912001658231 1.57027774476633
37.928001658991 1.23455724488772
37.9440016597509 1.38120212462263
37.9600016605109 1.2173129209674
37.9760016612708 1.30319666756668
37.9920016620308 1.15493863388322
38.0080016627908 1.34130693036777
38.0240016635507 1.51762394932566
38.0400016643107 1.49002898995961
38.0560016650706 1.58930702212287
38.0720016658306 1.57194210466897
38.0880016665906 1.35066650105917
38.1040016673505 1.25570343769721
38.1200016681105 1.41996434949845
38.1360016688704 1.41628815739343
38.1520016696304 1.52672170633602
38.1680016703904 1.37991997843232
38.1840016711503 1.3444184932068
38.2000016719103 1.33388727999471
38.2160016726702 1.1728449663384
38.2320016734302 1.62394226611551
38.2480016741902 1.70035618999206
38.2640016749501 1.73047646735869
38.2800016757101 1.5424693860534
38.29600167647 1.61696928485925
38.31200167723 1.6132969194238
38.32800167799 1.98920176753801
38.3440016787499 1.99223478225318
38.3600016795099 2.07025224609552
38.3760016802698 1.69508686032665
38.3920016810298 2.09547818266287
38.4080016817897 2.11977239343247
38.4240016825497 1.86207347364734
38.4400016833097 1.79028467489891
38.4560016840696 1.75926580405798
38.4720016848296 2.3438650064756
38.4880016855895 1.96700411868872
38.5040016863495 1.96301411855211
38.5200016871095 1.8562571707772
38.5360016878694 1.87691454220258
38.5520016886294 1.67196449721479
38.5680016893893 1.5908624175157
38.5840016901493 1.80726522828907
38.6000016909093 1.59846479445015
38.6160016916692 2.14168847270036
38.6320016924292 1.70786895032194
38.6480016931891 1.60524089673163
38.6640016939491 1.59534737435933
38.6800016947091 1.50973229258695
38.696001695469 1.5536099258876
38.712001696229 1.67170557355254
38.7280016969889 1.41708490033829
38.7440016977489 1.34429378137287
38.7600016985089 1.68073596776815
38.7760016992688 1.49626092750638
38.7920017000288 0.956445421054004
38.8080017007887 1.11658048025678
38.8240017015487 1.57459703862385
38.8400017023086 1.08914907349882
38.8560017030686 1.50193139865492
38.8720017038286 0.874231951824783
38.8880017045885 0.943005744442374
38.9040017053485 0.867734594397329
38.9200017061084 1.00898811318371
38.9360017068684 1.14834833244413
38.9520017076284 1.31510981863531
38.9680017083883 0.955159852156061
38.9840017091483 1.06139573460704
39.0000017099082 1.21029648160429
39.0160017106682 1.50341944198073
39.0320017114282 0.953851487189023
39.0480017121881 0.983574597737546
39.0640017129481 0.955441040904365
39.080001713708 1.18746858793969
39.096001714468 1.2336788079447
39.112001715228 0.99772998759236
39.1280017159879 1.05217152360422
39.1440017167479 0.924504163266764
39.1600017175078 0.994040667332897
39.1760017182678 1.36087648144745
39.1920017190278 1.37147603352329
39.2080017197877 1.42468289613421
39.2240017205477 1.42380642642618
39.2400017213076 1.23144600209423
39.2560017220676 1.11874838662307
39.2720017228275 1.16076952274974
39.2880017235875 1.49778641865203
39.3040017243475 1.49727764284788
39.3200017251074 1.76606492968323
39.3360017258674 1.97658974772696
39.3520017266273 2.27176750753108
39.3680017273873 2.8730330878648
39.3840017281473 4.13782902453998
39.4000017289072 5.17809605930801
39.4160017296672 6.11949210224429
39.4320017304271 5.85266891728498
39.4480017311871 4.20097473482296
39.4640017319471 3.22863412643992
39.480001732707 2.85614747357995
39.496001733467 3.02290179748628
39.5120017342269 3.46449562360234
39.5280017349869 3.55912742630541
39.5440017357469 2.77157961246043
39.5600017365068 1.93800844146528
39.5760017372668 1.59562962449244
39.5920017380267 1.57276566497734
39.6080017387867 1.21816267826528
39.6240017395466 0.91620050289333
39.6400017403066 0.967754151293753
39.6560017410666 0.826591087339471
39.6720017418265 0.772531481483989
39.6880017425865 0.703117199462181
39.7040017433464 0.606962938675159
39.7200017441064 0.523771131974707
39.7360017448664 0.819357372096345
39.7520017456263 0.778640188593755
39.7680017463863 0.504846724403794
39.7840017471462 0.772751157246815
39.8000017479062 0.599527442199297
39.8160017486662 0.784175852168256
39.8320017494261 0.774600722294447
39.8480017501861 0.46460907865995
39.864001750946 0.762502053070775
39.880001751706 0.946289270382015
39.896001752466 0.961026250231599
39.9120017532259 0.962025540500185
39.9280017539859 1.04924580179929
39.9440017547458 1.0174891337761
39.9600017555058 0.902600603548558
39.9760017562658 1.10592825776382
39.9920017570257 1.05719683891316
