'Id: "" Comment: "" Operator: "Lab Manager" Anode: "Cu" Scantype: "Locked Coupled" TimePerStep: "157.8622" 
3 2.47494729292342
3.01600000075996 2.4444071973501
3.03200000151992 1.51848451376387
3.04800000227988 1.58030048722907
3.06400000303984 0.673739190934984
3.0800000037998 0.783943417975649
3.09600000455976 1.16768731782078
3.11200000531971 0.862883514615201
3.12800000607967 1.42572989315247
3.14400000683963 1.54093469508448
3.16000000759959 1.13444841459784
3.17600000835955 0.967542866418671
3.19200000911951 0.326485981126235
3.20800000987947 0.469063412001435
3.22400001063943 0.785649281639194
3.24000001139939 0.712116930184201
3.25600001215935 1.18307056749095
3.27200001291931 0.871690473346322
3.28800001367927 0.934781461758258
3.30400001443923 0.758291010621565
3.32000001519918 0.643487054488772
3.33600001595914 0.289898601039993
3.3520000167191 0.0659691955343282
3.36800001747906 0.75128069974038
3.38400001823902 0.833666547165289
3.40000001899898 0.623995163275615
3.41600001975894 0.6407087657204
3.4320000205189 0.753931395921273
3.44800002127886 0.591954653187616
3.46400002203882 0.219898313681969
3.48000002279878 0.290248487125235
3.49600002355874 0.817077227695452
3.5120000243187 0.643153870594847
3.52800002507865 0.467880331558422
3.54400002583861 0.552988169427329
3.56000002659857 0.828675506275338
3.57600002735853 0.399143402387167
3.59200002811849 0.580868171430793
3.60800002887845 1.26654767480652
3.62400002963841 0.938540280406882
3.64000003039837 0.650789366180798
3.65600003115833 0.556650830834065
3.67200003191829 1.33922064562066
3.68800003267825 1.42512420347474
3.70400003343821 0.650616969779807
3.72000003419816 0.802020723451359
3.73600003495812 1.2421444329579
3.75200003571808 0.584247866507588
3.76800003647804 0.213099173350236
3.784000037238 0.179239350063301
3.80000003799796 0.66827141364682
3.81600003875792 1.09020388892916
3.83200003951788 0.579359918969923
3.84800004027784 1.39251669483575
3.8640000410378 1.20319255836796
3.88000004179776 0.742502277426801
3.89600004255772 0.661290728117353
3.91200004331768 0.284120790455847
3.92800004407763 0.751746669482666
3.94400004483759 0.970436313960973
3.96000004559755 0.346981457226749
3.97600004635751 0.716023722619936
3.99200004711747 0.712846180227305
4.00800004787743 0.741853065294129
4.02400004863739 0.560541888600375
4.04000004939735 1.02484117254159
4.05600005015731 0.739043296584916
4.07200005091727 0.309369071166343
4.08800005167723 0.776102931987405
4.10400005243719 0.477776372545196
4.12000005319715 0.534520118347547
4.1360000539571 0.933927483346134
4.15200005471706 0.100488455342005
4.16800005547702 0.358924915227813
4.18400005623698 0.507176334451635
4.20000005699694 0.475844783499791
4.2160000577569 0.501463332322699
4.23200005851686 1.08156621578307
4.24800005927682 0.702966804955181
4.26400006003678 0.86526367868204
4.28000006079674 0.764839138940427
4.2960000615567 0.672734248120149
4.31200006231666 0.625739239469282
4.32800006307662 0.685772158886947
4.34400006383657 0.745759884172325
4.36000006459653 0.80436277044135
4.37600006535649 0.529255088934216
4.39200006611645 0.689345646760869
4.40800006687641 0.528787859556547
4.42400006763637 0.0970580530250613
4.44000006839633 0.345365358243366
4.45600006915629 0.605870535096261
4.47200006991625 0.632460449621877
4.48800007067621 0.106233601585031
4.50400007143617 0.386245781619482
4.52000007219613 0.777007905334577
4.53600007295609 0.802747469508375
4.55200007371604 1.04268923359401
4.568000074476 0.987251805875778
4.58400007523596 0.39402148521924
4.60000007599592 0.10724240758731
4.61600007675588 0.47449090023657
4.63200007751584 0.662886400924569
4.6480000782758 0.127931162668093
4.66400007903576 0.4350709819603
4.68000007979572 0.452985237006135
4.69600008055568 1.04433646914523
4.71200008131564 0.924550419308164
4.7280000820756 0.317655413135095
4.74400008283556 0.46409507211225
4.76000008359551 0.415899979539808
4.77600008435547 0.361730871093704
4.79200008511543 0.590419642749885
4.80800008587539 0.783750514542318
4.82400008663535 0.831698174800578
4.84000008739531 0.73400780885225
4.85600008815527 0.93759309077167
4.87200008891523 1.08247922036696
4.88800008967519 0.788954299576491
4.90400009043515 0.759977613953377
4.92000009119511 0.551617080891375
4.93600009195507 0.472823725482658
4.95200009271502 1.06477990265425
4.96800009347498 0.704631703329627
4.98400009423494 1.05994152689443
5.0000000949949 0.433208514882842
5.01600009575486 0.236138717801345
5.03200009651482 0.773291076191163
5.04800009727478 0.907904114312589
5.06400009803474 1.22027193761403
5.0800000987947 1.10439802818713
5.09600009955466 1.38702269612938
5.11200010031462 1.32380098080388
5.12800010107458 1.67832257055244
5.14400010183454 1.31752001177352
5.16000010259449 0.901583594247351
5.17600010335445 0.72427220640354
5.19200010411441 0.940043580366914
5.20800010487437 0.881964398922118
5.22400010563433 0.682178417408166
5.24000010639429 1.63518284224463
5.25600010715425 1.16004712730391
5.27200010791421 1.02522466417066
5.28800010867417 0.765355661066642
5.30400010943413 0.961730388067521
5.32000011019409 1.28747804212391
5.33600011095405 1.39007675525396
5.35200011171401 1.33754323894704
5.36800011247396 1.35144292260211
5.38400011323392 1.54852739469813
5.40000011399388 1.61970374197064
5.41600011475384 1.9466398193344
5.4320001155138 1.80615002120848
5.44800011627376 1.23336439840564
5.46400011703372 1.20462868677104
5.48000011779368 1.46859478148734
5.49600011855364 1.93394933794768
5.5120001193136 1.64853015570734
5.52800012007356 1.53632489430176
5.54400012083352 1.51801882259523
5.56000012159348 1.87703428617945
5.57600012235343 1.92798185296545
5.59200012311339 1.74361888437716
5.60800012387335 2.1516580533571
5.62400012463331 1.73357223715532
5.64000012539327 1.89144623470227
5.65600012615323 1.68364090810069
5.67200012691319 1.74743915397929
5.68800012767315 1.51978949755139
5.70400012843311 2.29493264223818
5.72000012919307 2.17116065170503
5.73600012995303 1.99743826101505
5.75200013071299 1.85457560755336
5.76800013147295 2.02278507982292
5.7840001322329 1.96068787732379
5.80000013299286 2.28772981820496
5.81600013375282 2.13347849261867
5.83200013451278 2.29805130981697
5.84800013527274 2.46388694225655
5.8640001360327 2.64812372466533
5.88000013679266 2.03834220890997
5.89600013755262 1.73450141349066
5.91200013831258 2.31611639551474
5.92800013907254 2.71437227559669
5.9440001398325 2.95388341338707
5.96000014059246 2.84975996529466
5.97600014135242 2.46369567076488
5.99200014211237 3.06824549970212
6.00800014287233 2.90478976526198
6.02400014363229 3.20105383733916
6.04000014439225 3.77441409810083
6.05600014515221 3.72267692830095
6.07200014591217 3.28246295705906
6.08800014667213 3.70185290943537
6.10400014743209 3.88997530996206
6.12000014819205 3.77483751517727
6.13600014895201 3.39450072574728
6.15200014971197 3.0992214684945
6.16800015047192 3.77774503036048
6.18400015123188 4.00629082688174
6.20000015199184 4.02861730897186
6.2160001527518 4.08924998854274
6.23200015351176 4.301572953092
6.24800015427172 3.47765682255545
6.26400015503168 3.14416025093653
6.28000015579164 2.99783851764273
6.2960001565516 3.24281287953357
6.31200015731156 3.72344151722191
6.32800015807152 3.65829309819517
6.34400015883148 3.38966470411241
6.36000015959144 3.82227992888289
6.37600016035139 3.43444163031302
6.39200016111135 3.29987323301152
6.40800016187131 3.38085648814559
6.42400016263127 3.24638170412327
6.44000016339123 3.60313973897176
6.45600016415119 3.14496670287076
6.47200016491115 2.70685638313444
6.48800016567111 2.96671697848148
6.50400016643107 2.96091946075638
6.52000016719103 3.40860935839429
6.53600016795099 2.8148740937513
6.55200016871095 2.86064047505782
6.56800016947091 3.08940991419703
6.58400017023086 3.2894735549317
6.60000017099082 3.09714337301881
6.61600017175078 3.08738481865989
6.63200017251074 3.40797483970259
6.6480001732707 2.85524894430445
6.66400017403066 2.66432427534227
6.68000017479062 3.02579080110767
6.69600017555058 3.46485296283243
6.71200017631054 2.88968013546245
6.7280001770705 2.70219602547563
6.74400017783046 2.93394630248488
6.76000017859042 2.92155505693039
6.77600017935038 2.94444287913256
6.79200018011033 2.88727031541768
6.80800018087029 2.93200566780182
6.82400018163025 2.91361603273078
6.84000018239021 3.26523227653057
6.85600018315017 2.3520798771239
6.87200018391013 2.42117423228023
6.88800018467009 2.92587259804979
6.90400018543005 2.61631326940984
6.92000018619001 2.33265356366272
6.93600018694997 2.84657206624543
6.95200018770993 2.65939616334238
6.96800018846989 2.55381711467732
6.98400018922985 2.50078979572079
7.0000001899898 2.59521962991841
7.01600019074976 2.03256087966313
7.03200019150972 2.619100971666
7.04800019226968 2.40930382248238
7.06400019302964 2.19621379871292
7.0800001937896 2.48426298071525
7.09600019454956 2.40125342001159
7.11200019530952 2.55847979577873
7.12800019606948 3.23127686207343
7.14400019682944 3.08705264450135
7.1600001975894 2.59958747275829
7.17600019834936 2.31133257900348
7.19200019910931 2.5835911968795
7.20800019986927 2.59548978126124
7.22400020062923 2.81107848592453
7.24000020138919 2.27073461974836
7.25600020214915 2.02873505965999
7.27200020290911 2.08277212473063
7.28800020366907 2.03726673090299
7.30400020442903 2.69478980841058
7.32000020518899 2.56965512199557
7.33600020594895 2.30849459174426
7.35200020670891 2.38394106333882
7.36800020746887 1.68441958620838
7.38400020822883 2.10337605538262
7.40000020898878 2.47220375423185
7.41600020974874 2.43721548838002
7.4320002105087 2.14923764891769
7.44800021126866 2.07910856055359
7.46400021202862 1.31399609563348
7.48000021278858 2.15501366451456
7.49600021354854 2.59677777647453
7.5120002143085 2.00685272482181
7.52800021506846 2.09100146798714
7.54400021582842 2.10922924078952
7.56000021658838 2.08714210956458
7.57600021734834 1.80602448330904
7.5920002181083 1.66033446194642
7.60800021886825 1.80121830353785
7.62400021962821 1.94546776601494
7.64000022038817 2.27327738146594
7.65600022114813 2.07332960426911
7.67200022190809 1.65743529801629
7.68800022266805 1.5039603508582
7.70400022342801 1.51670799246272
7.72000022418797 1.53625041703623
7.73600022494793 1.86115744827696
7.75200022570789 1.81833808141536
7.76800022646785 1.65326536435965
7.78400022722781 1.85864085200081
7.80000022798777 1.82212051663106
7.81600022874772 1.5726857009329
7.83200022950768 2.09415505295402
7.84800023026764 1.90054970089933
7.8640002310276 1.77619724724836
7.88000023178756 1.78479423857129
7.89600023254752 1.87806799032706
7.91200023330748 1.43770177626351
7.92800023406744 1.53858691293329
7.9440002348274 1.76857249255954
7.96000023558736 1.59871670106347
7.97600023634732 1.85825064838006
7.99200023710728 1.45252026529534
8.00800023786724 1.2858658412155
8.0240002386272 1.59577154764536
8.04000023938715 1.39942716294125
8.05600024014711 1.75684568418161
8.07200024090707 1.51576510487898
8.08800024166703 1.68004635481648
8.10400024242699 1.51881863163269
8.12000024318695 1.21917088701009
8.13600024394691 1.57716643351414
8.15200024470687 2.15906207852329
8.16800024546683 1.34927721092944
8.18400024622679 1.55489643286714
8.20000024698675 1.18637504470955
8.21600024774671 1.56289704461388
8.23200024850667 1.4435876928303
8.24800024926662 1.2142240738809
8.26400025002658 1.30217568064188
8.28000025078654 1.32421168763569
8.2960002515465 1.50397844172153
8.31200025230646 1.89767728149904
8.32800025306642 1.81768787161012
8.34400025382638 1.41574545464672
8.36000025458634 1.57267509624842
8.3760002553463 1.82269295697185
8.39200025610626 1.32224578398531
8.40800025686622 1.24075291739782
8.42400025762618 1.20649011913435
8.44000025838614 1.56658360401584
8.45600025914609 1.47206460022996
8.47200025990605 1.24989348200594
8.48800026066601 1.68828926805184
8.50400026142597 1.8459973213554
8.52000026218593 1.42967116149587
8.53600026294589 1.06351869163897
8.55200026370585 1.06680857726141
8.56800026446581 1.45862387856603
8.58400026522577 1.6202735923298
8.60000026598573 1.62054232686118
8.61600026674569 1.67697358726366
8.63200026750565 1.42706130679536
8.6480002682656 1.74278597318117
8.66400026902556 1.83716944951081
8.68000026978552 1.96152598419101
8.69600027054548 2.03517704175664
8.71200027130544 2.64236155811105
8.7280002720654 3.05949921688684
8.74400027282536 3.45323835667268
8.76000027358532 4.35378161903673
8.77600027434528 5.16912997438607
8.79200027510524 5.63400777957909
8.8080002758652 6.69963547639704
8.82400027662516 7.92166637597304
8.84000027738512 8.54017188246528
8.85600027814507 7.11334891224249
8.87200027890503 4.89039893880053
8.88800027966499 3.52486302090765
8.90400028042495 2.601680334128
8.92000028118491 2.49959072104535
8.93600028194487 1.70310617344694
8.95200028270483 1.28807701214593
8.96800028346479 0.982416254378694
8.98400028422475 1.20450816741574
9.00000028498471 1.5148135251785
9.01600028574467 1.3649852314782
9.03200028650463 1.43060836667174
9.04800028726459 1.04966478689621
9.06400028802454 1.02504042924737
9.0800002887845 0.915402986056523
9.09600028954446 0.719241234840465
9.11200029030442 0.885873696628502
9.12800029106438 1.50565025899946
9.14400029182434 1.51025572861943
9.1600002925843 1.29243018076325
9.17600029334426 1.05850263223284
9.19200029410422 0.925420227191894
9.20800029486418 1.24412432344947
9.22400029562414 1.09393722035537
9.24000029638409 0.839592685139837
9.25600029714405 0.855342144623212
9.27200029790401 0.507884767169558
9.28800029866397 0.0938261029214251
9.30400029942393 0.249566522411455
9.32000030018389 0.456333113255933
9.33600030094385 0.861555483994633
9.35200030170381 0.761115767345985
9.36800030246377 0.210793818462236
9.38400030322373 0.49162098803327
9.40000030398369 0.541779653513896
9.41600030474365 0.937646873047295
9.43200030550361 0.407978953767503
9.44800030626356 0.695974059677931
9.46400030702352 0.644444807987406
9.48000030778348 0.2939676223332
9.49600030854344 0.160664339724467
9.5120003093034 0.370615742457981
9.52800031006336 0.968591764849452
9.54400031082332 1.10340621462101
9.56000031158328 0.723417077819039
9.57600031234324 0.636957274641481
9.5920003131032 0.792391798209761
9.60800031386316 0.485756120135201
9.62400031462312 0.774662689481834
9.64000031538307 0.685128798352701
9.65600031614303 0.514995974470529
9.67200031690299 0.611758609411457
9.68800031766295 0.224235827386162
9.70400031842291 0.433844575686787
9.72000031918287 0.770785170526945
9.73600031994283 0.393035077441426
9.75200032070279 0.270417239930095
9.76800032146275 0.411305590872519
9.78400032222271 0.323765182015612
9.80000032298267 0.503301136370434
9.81600032374263 0.687500945190108
9.83200032450259 0.365902226065546
9.84800032526254 0.589792837747853
9.8640003260225 0.694453210948903
9.88000032678246 0.184546646204311
9.89600032754242 0.469197542288023
9.91200032830238 0.990374043738863
9.92800032906234 0.690081548272251
9.9440003298223 0.64655791461077
9.96000033058226 0.451471618671651
9.97600033134222 0.418149905509506
9.99200033210218 0.600482662398604
10.0080003328621 0.607472354418735
10.0240003336221 0.0834333852734543
10.0400003343821 0.241864752500029
10.056000335142 0.779378213378481
10.072000335902 0.716294784344716
10.0880003366619 0.454871111832891
10.1040003374219 0.623500910890949
10.1200003381819 0.352064538750873
10.1360003389418 0.409473959904667
10.1520003397018 0.466813513153988
10.1680003404617 0.431403531166116
10.1840003412217 0.254834860994841
10.2000003419816 0.668888702363307
10.2160003427416 0.431762591592237
10.2320003435016 0.43050499471478
10.2480003442615 0.42971501488064
10.2640003450215 0.39092963456643
10.2800003457814 0.631604219143358
10.2960003465414 0.595162043140024
10.3120003473014 0.569906180550295
10.3280003480613 0.723972730345294
10.3440003488213 0.347750915175177
10.3600003495812 0.253671499542004
10.3760003503412 0.493336988537782
10.3920003511012 0.252333914010232
10.4080003518611 0.532394554686163
10.4240003526211 0.747692764147099
10.440000353381 0.38521124765166
10.456000354141 0.524390589281235
10.472000354901 0.641598899906472
10.4880003556609 0.749723365051909
10.5040003564209 0.677754894580555
10.5200003571808 0.957345817212773
10.5360003579408 0.379394516978556
10.5520003587008 0.439918239076371
10.5680003594607 0.804529596953892
10.5840003602207 0.575842773182557
10.6000003609806 0.280046634994203
10.6160003617406 0.821432854632994
10.6320003625005 1.01885715609208
10.6480003632605 0.530951170929126
10.6640003640205 0.13642722202797
10.6800003647804 0.374654232852317
10.6960003655404 0.550690981014392
10.7120003663003 0.305137861376568
10.7280003670603 0.361843217858627
10.7440003678203 0.816741005996367
10.7600003685802 0.629378093158485
10.7760003693402 0.665406270705271
10.7920003701001 0.599156863406514
10.8080003708601 0.504361708920354
10.8240003716201 0.247519088704334
10.84000037238 0.609338267649737
10.85600037314 0.932122072535766
10.8720003738999 0.911268809910186
10.8880003746599 0.71848461270138
10.9040003754199 0.513841639188397
10.9200003761798 0.721291458621113
10.9360003769398 0.782614707771571
10.9520003776997 0.502188018198772
10.9680003784597 0.625830933752915
10.9840003792196 0.442938914847828
11.0000003799796 1.06578671858483
11.0160003807396 0.855522188630244
11.0320003814995 0.866302752841436
11.0480003822595 0.882293184103934
11.0640003830194 0.579207084044797
11.0800003837794 0.490896063810889
11.0960003845394 0.656342689202261
11.1120003852993 0.742281901762479
11.1280003860593 0.687955824751595
11.1440003868192 0.868337126674226
11.1600003875792 1.23808851570105
11.1760003883392 0.652457690307236
11.1920003890991 0.455662747846321
11.2080003898591 0.600546378875207
11.224000390619 0.489821221240258
11.240000391379 0.326711271745867
11.256000392139 0.662822394581229
11.2720003928989 0.69140423265458
11.2880003936589 0.917244659607218
11.3040003944188 0.794222270485521
11.3200003951788 0.678722904732758
11.3360003959388 0.880340265572916
11.3520003966987 0.753860657181279
11.3680003974587 0.787971667676044
11.3840003982186 0.954040571673457
11.4000003989786 0.864359547615211
11.4160003997385 1.13456783573695
11.4320004004985 1.11265392616319
11.4480004012585 1.09526788121484
11.4640004020184 0.956717098984078
11.4800004027784 0.918075090135678
11.4960004035383 1.17567002217791
11.5120004042983 1.45714470369052
11.5280004050583 1.35488487240891
11.5440004058182 1.63313427725556
11.5600004065782 2.4120274004322
11.5760004073381 2.91922015181406
11.5920004080981 3.00492055045908
11.6080004088581 3.58165128712071
11.624000409618 3.17841939789228
11.640000410378 2.36350611690523
11.6560004111379 1.83161943929432
11.6720004118979 1.31934687509855
11.6880004126579 1.45567914360446
11.7040004134178 2.06116566490542
11.7200004141778 1.56997614302076
11.7360004149377 1.38900581443497
11.7520004156977 1.95254413488006
11.7680004164577 2.0279402530935
11.7840004172176 1.64677611462032
11.8000004179776 1.85287262496022
11.8160004187375 1.77977069038329
11.8320004194975 1.80011326000701
11.8480004202574 1.93886367852159
11.8640004210174 1.98344507933486
11.8800004217774 2.43574110212383
11.8960004225373 2.33204102602948
11.9120004232973 2.179166899493
11.9280004240572 2.10278017867722
11.9440004248172 2.06283906897656
11.9600004255772 2.38259704329203
11.9760004263371 2.70102009766284
11.9920004270971 2.86028897104111
12.008000427857 3.05268210341705
12.024000428617 3.03987408068024
12.040000429377 2.94139052069019
12.0560004301369 3.53112184260889
12.0720004308969 3.50050399468543
12.0880004316568 3.37545504723699
12.1040004324168 3.75869218003768
12.1200004331768 4.20833676551888
12.1360004339367 4.25624406616608
12.1520004346967 5.19545475447985
12.1680004354566 5.89673885965942
12.1840004362166 6.07777639478638
12.2000004369766 7.13341865330033
12.2160004377365 8.18746804498758
12.2320004384965 10.0451907011943
12.2480004392564 11.2553561234051
12.2640004400164 13.2244241034724
12.2800004407763 15.1347482086106
12.2960004415363 18.057394924033
12.3120004422963 21.4544423548146
12.3280004430562 23.0316291768537
12.3440004438162 22.0782012161385
12.3600004445761 19.1618274971028
12.3760004453361 14.6567007702628
12.3920004460961 11.0619677716575
12.408000446856 9.08025941213586
12.424000447616 7.50780902904387
12.4400004483759 7.05104078926219
12.4560004491359 6.50719154901428
12.4720004498959 5.58872262859156
12.4880004506558 5.75320689569851
12.5040004514158 5.11692333422878
12.5200004521757 3.93279033919172
12.5360004529357 3.21830325749732
12.5520004536957 3.05894339250021
12.5680004544556 2.77717291502475
12.5840004552156 2.7207964843072
12.6000004559755 2.37676787956763
12.6160004567355 2.25423552964679
12.6320004574954 2.18837968058876
12.6480004582554 1.94404221936505
12.6640004590154 1.35709298562081
12.6800004597753 1.29885802524755
12.6960004605353 1.40035952845337
12.7120004612952 1.21615526093964
12.7280004620552 1.29213544730405
12.7440004628152 1.02813483641083
12.7600004635751 1.22302250508853
12.7760004643351 1.04262641240348
12.792000465095 1.28596990781632
12.808000465855 1.29902393161803
12.824000466615 1.16010868556165
12.8400004673749 1.30938615116036
12.8560004681349 1.30240472040103
12.8720004688948 1.15725813005289
12.8880004696548 0.914935183195078
12.9040004704148 0.847073453283499
12.9200004711747 1.18465176620888
12.9360004719347 1.06706529152292
12.9520004726946 0.841086008495497
12.9680004734546 0.852740962433349
12.9840004742146 1.02856984405602
13.0000004749745 0.944693603335927
13.0160004757345 0.713169400781848
13.0320004764944 0.297240772137891
13.0480004772544 1.02968792531233
13.0640004780143 1.1342273331988
13.0800004787743 0.770040235471902
13.0960004795343 0.954451599453859
13.1120004802942 0.617001754045639
13.1280004810542 0.679098033320085
13.1440004818141 0.686387496412391
13.1600004825741 0.517969876545847
13.1760004833341 0.812349009890634
13.192000484094 0.506875369562844
13.208000484854 0.795218543347443
13.2240004856139 0.77930902958068
13.2400004863739 0.860518242745452
13.2560004871339 0.67753277695977
13.2720004878938 0.79368600448984
13.2880004886538 0.581432395798191
13.3040004894137 0.308244806836977
13.3200004901737 0.0610840275732007
13.3360004909337 0.618887159023571
13.3520004916936 0.504123764729466
13.3680004924536 0.664156270473415
13.3840004932135 0.684051875158898
13.4000004939735 0.503878008000235
13.4160004947335 1.02185736703693
13.4320004954934 0.980663538724566
13.4480004962534 1.02637009233483
13.4640004970133 0.758281070393719
13.4800004977733 0.675390270139492
13.4960004985332 0.626998017622783
13.5120004992932 0.621768839909731
13.5280005000532 0.704069781136503
13.5440005008131 0.790902694163308
13.5600005015731 0.835723438720803
13.576000502333 0.819133348313849
13.592000503093 0.678392100729607
13.608000503853 0.651803603901768
13.6240005046129 0.816441105659549
13.6400005053729 0.677601805614887
13.6560005061328 0.865182337714773
13.6720005068928 0.666027401735238
13.6880005076528 0.800612973854505
13.7040005084127 0.778405278101139
13.7200005091727 0.595173543697435
13.7360005099326 0.921859333957371
13.7520005106926 0.832449892550394
13.7680005114526 0.407474567878672
13.7840005122125 0.806194378832878
13.8000005129725 0.713509592533803
13.8160005137324 0.690432898467221
13.8320005144924 0.506560277562435
13.8480005152523 0.599315738987234
13.8640005160123 0.681967025014552
13.8800005167723 0.693761088366229
13.8960005175322 0.701368409494381
13.9120005182922 1.14737466652096
13.9280005190521 0.709163683741827
13.9440005198121 0.523474955175003
13.9600005205721 0.520793896961044
13.976000521332 0.422930304692229
13.992000522092 0.35930399462709
14.0080005228519 0.425430238123652
14.0240005236119 0.780955723570986
14.0400005243719 0.508066727860732
14.0560005251318 0.666296054167515
14.0720005258918 0.912658099392993
14.0880005266517 0.829724371422826
14.1040005274117 0.586580989372179
14.1200005281717 0.504255326814795
14.1360005289316 0.837706138946587
14.1520005296916 0.627470176704944
14.1680005304515 0.593377531278697
14.1840005312115 0.522744123197515
14.2000005319715 0.935494987577356
14.2160005327314 0.764484282431655
14.2320005334914 0.6401724955941
14.2480005342513 0.937496828356703
14.2640005350113 0.877138583841977
14.2800005357712 0.93095305079462
14.2960005365312 0.85665545582131
14.3120005372912 0.568946793387956
14.3280005380511 0.64027658025888
14.3440005388111 0.631883635089459
14.360000539571 0.685033248231671
14.376000540331 0.967787965965511
14.392000541091 0.388545128999502
14.4080005418509 0.226969648310269
14.4240005426109 0.483154055148606
14.4400005433708 1.25421739785346
14.4560005441308 0.75554044087264
14.4720005448908 0.837987647061541
14.4880005456507 0.81303819708632
14.5040005464107 0.954553535165087
14.5200005471706 0.67203021674156
14.5360005479306 0.287618657694163
14.5520005486906 0.214600291683527
14.5680005494505 0.498145417214332
14.5840005502105 0.369762254506493
14.6000005509704 0.403953346793473
14.6160005517304 0.717150619878429
14.6320005524904 0.725788904933991
14.6480005532503 0.545419992037243
14.6640005540103 0.402134199415058
14.6800005547702 0.667107743266821
14.6960005555302 0.751365888103195
14.7120005562901 0.853188178177995
14.7280005570501 0.856146749424298
14.7440005578101 0.343599553113523
14.76000055857 0.720584167266604
14.77600055933 0.585656286468443
14.7920005600899 0.225901726960523
14.8080005608499 0.573989600136939
14.8240005616099 0.475967326259435
14.8400005623698 0.559519133455114
14.8560005631298 0.795572373713019
14.8720005638897 0.535888301753165
14.8880005646497 0.616125781139076
14.9040005654097 0.407446843585073
14.9200005661696 0.291504650526979
14.9360005669296 0.437004692849604
14.9520005676895 0.692735669075661
14.9680005684495 0.610740818707368
14.9840005692095 0.308435523255992
15.0000005699694 0.618122510820004
15.0160005707294 0.339199472720384
15.0320005714893 0.496838959652798
15.0480005722493 0.819179748821981
15.0640005730093 0.849839907103472
15.0800005737692 0.220061389272348
15.0960005745292 0.38069750102752
15.1120005752891 0.802979552930348
15.1280005760491 0.821222152852809
15.144000576809 0.517745811541745
15.160000577569 0.447440240397479
15.176000578329 0.649256555509289
15.1920005790889 0.693631634213774
15.2080005798489 0.384762298174057
15.2240005806088 0.829544637916219
15.2400005813688 1.15877459180164
15.2560005821288 0.562711533335428
15.2720005828887 0.433753843277681
15.2880005836487 0.433377947611533
15.3040005844086 0.296795195168056
15.3200005851686 0.293193948550674
15.3360005859286 0.607051484360556
15.3520005866885 0.703915847010401
15.3680005874485 0.774840139939589
15.3840005882084 0.499711497473212
15.4000005889684 0.565681291753109
15.4160005897284 0.712792927518913
15.4320005904883 0.498987378182702
15.4480005912483 0.657365553677788
15.4640005920082 0.673580384855165
15.4800005927682 0.408129712905166
15.4960005935281 0.497014261865778
15.5120005942881 0.877340548544029
15.5280005950481 0.434616410422863
15.544000595808 0.543513601386803
15.560000596568 0.692503626215308
15.5760005973279 0.376782738875208
15.5920005980879 0.549459947446194
15.6080005988479 0.820544581854185
15.6240005996078 0.860492889227323
15.6400006003678 0.175223153867896
15.6560006011277 0.13218936133472
15.6720006018877 0.488242387399828
15.6880006026477 0.524046499449782
15.7040006034076 0.610476132791221
15.7200006041676 0.578693081611017
15.7360006049275 0.392102955743973
15.7520006056875 0.58203010112975
15.7680006064475 0.904961179775566
15.7840006072074 0.758654080304331
15.8000006079674 0.639826150541141
15.8160006087273 0.712371991745111
15.8320006094873 0.343789777702928
15.8480006102473 0.44753480546814
15.8640006110072 0.940442449172626
15.8800006117672 0.505312739563247
15.8960006125271 0.850388667273676
15.9120006132871 0.611389707032219
15.928000614047 0.338327838913059
15.944000614807 0.504261335048354
15.960000615567 0.441744436224604
15.9760006163269 0.630696807327348
15.9920006170869 0.229641405657934
16.0080006178468 0.264362150936837
16.0240006186068 0.642985519547593
16.0400006193668 0.284811777905131
16.0560006201267 0.502209878084979
16.0720006208867 0.504517534395901
16.0880006216466 0.548178621228165
16.1040006224066 0.711722025817351
16.1200006231666 0.83899664343265
16.1360006239265 0.622967867577372
16.1520006246865 0.405893150376531
16.1680006254464 0.687250293143907
16.1840006262064 0.530932032496943
16.2000006269664 0.362752119853305
16.2160006277263 0.342452715186831
16.2320006284863 0.457277073863545
16.2480006292462 0.541477844829408
16.2640006300062 0.44867023218931
16.2800006307661 0.667503299681925
16.2960006315261 0.784286944225097
16.3120006322861 0.648412546956453
16.328000633046 0.814479022074418
16.344000633806 0.710615836966539
16.3600006345659 0.360149023501465
16.3760006353259 0.532706754296368
16.3920006360859 0.529188902562981
16.4080006368458 0.394230495913539
16.4240006376058 0.453732626393829
16.4400006383657 0.600845185801368
16.4560006391257 0.519685383267972
16.4720006398857 0.748119485262545
16.4880006406456 0.732816264471912
16.5040006414056 0.633317065244687
16.5200006421655 0.715353043678541
16.5360006429255 0.36191659952932
16.5520006436855 0.250519732001719
16.5680006444454 0.39265899085851
16.5840006452054 0.495324913896183
16.6000006459653 0.429073609070934
16.6160006467253 0.515844000571035
16.6320006474853 0.518561570133987
16.6480006482452 0.356749203465561
16.6640006490052 0.555879382475031
16.6800006497651 0.752399487385037
16.6960006505251 0.459673894624509
16.712000651285 0.42143357236086
16.728000652045 0.955405580411973
16.744000652805 0.819900683492153
16.7600006535649 0.595804231653706
16.7760006543249 0.682995889906159
16.7920006550848 0.345436431794112
16.8080006558448 0.619428182044893
16.8240006566048 0.83769043441026
16.8400006573647 0.422331716724762
16.8560006581247 0.472092497761103
16.8720006588846 0.765531051619202
16.8880006596446 0.740650954088115
16.9040006604046 0.504394855987818
16.9200006611645 0.219520116700306
16.9360006619245 0.312925115017346
16.9520006626844 0.295763121081653
16.9680006634444 0.655401739665636
16.9840006642044 0.761108185711802
17.0000006649643 0.810205645054546
17.0160006657243 0.793612517103091
17.0320006664842 0.870316507407277
17.0480006672442 0.64980469464903
17.0640006680042 0.717640030332743
17.0800006687641 0.707927526098364
17.0960006695241 0.603055308892318
17.112000670284 0.422048734362959
17.128000671044 0.916312406745052
17.1440006718039 1.02248979979351
17.1600006725639 0.872482143917913
17.1760006733239 0.491036204370846
17.1920006740838 0.763502981781587
17.2080006748438 0.624021283734131
17.2240006756037 0.734775451268274
17.2400006763637 0.714142610209715
17.2560006771237 0.941845731656529
17.2720006778836 0.994115942515525
17.2880006786436 0.514253568035431
17.3040006794035 1.01471473851724
17.3200006801635 0.88356443820619
17.3360006809235 0.934637751513635
17.3520006816834 0.916331158373512
17.3680006824434 0.602295784663862
17.3840006832033 0.390004422802975
17.4000006839633 0.726410613022989
17.4160006847233 1.17048207748825
17.4320006854832 0.642008194186299
17.4480006862432 0.508494524022555
17.4640006870031 1.09225197123107
17.4800006877631 0.724370837565679
17.4960006885231 0.83164024263466
17.512000689283 1.07727724526509
17.528000690043 0.871855617093503
17.5440006908029 0.83890739746627
17.5600006915629 1.05990608450861
17.5760006923228 1.20869335096648
17.5920006930828 0.875027646746669
17.6080006938428 0.756813049766662
17.6240006946027 1.39501905613321
17.6400006953627 1.52174807696492
17.6560006961226 1.99383988230669
17.6720006968826 1.7440062454963
17.6880006976426 1.89091579339042
17.7040006984025 2.61167994760136
17.7200006991625 2.8076101428674
17.7360006999224 2.61824319664024
17.7520007006824 2.34903672791718
17.7680007014424 1.98543617083514
17.7840007022023 1.78462548337184
17.8000007029623 1.4381583516194
17.8160007037222 1.28933477628824
17.8320007044822 1.41949629047424
17.8480007052422 1.49458463842075
17.8640007060021 0.954461950280662
17.8800007067621 1.05094694102032
17.896000707522 1.2908489328151
17.912000708282 1.05899194586398
17.9280007090419 1.3718071528334
17.9440007098019 1.49240226627279
17.9600007105619 0.869206797283261
17.9760007113218 0.936339726689151
17.9920007120818 0.97159674711344
18.0080007128417 0.807926654745381
18.0240007136017 0.615884779844259
18.0400007143617 0.568378647746928
18.0560007151216 0.458133252498459
18.0720007158816 0.72976689497207
18.0880007166415 0.66402014058179
18.1040007174015 1.08755815355082
18.1200007181615 1.19392470024633
18.1360007189214 1.10071071441893
18.1520007196814 0.628868217509482
18.1680007204413 0.454828066285335
18.1840007212013 0.750008576495268
18.2000007219613 0.727588407453474
18.2160007227212 0.395696103615031
18.2320007234812 0.821280589287803
18.2480007242411 1.01209291627305
18.2640007250011 0.597132191386526
18.2800007257611 0.850840570657534
18.296000726521 0.639014517053433
18.312000727281 0.84691454102978
18.3280007280409 0.519468234517549
18.3440007288009 0.908151302593299
18.3600007295608 0.998912443638805
18.3760007303208 0.596322288832376
18.3920007310808 0.454603171832194
18.4080007318407 0.424753576118689
18.4240007326007 0.799412303974875
18.4400007333606 0.736256999358084
18.4560007341206 0.609795675457012
18.4720007348806 0.540926920300183
18.4880007356405 0.520829916145819
18.5040007364005 0.689805857145484
18.5200007371604 0.357207252825902
18.5360007379204 0.429397608422245
18.5520007386804 0.688394682543843
18.5680007394403 0.832586661978541
18.5840007402003 0.490043158856859
18.6000007409602 0.547301203832403
18.6160007417202 0.710228460842232
18.6320007424802 0.764486105639638
18.6480007432401 0.55809534089524
18.6640007440001 0.785702660917486
18.68000074476 0.501081926232907
18.69600074552 0.791278108027195
18.71200074628 0.745530155035516
18.7280007470399 0.751359301237978
18.7440007477999 0.736612231622632
18.7600007485598 0.535523219353565
18.7760007493198 0.865889374997818
18.7920007500797 0.732968592279497
18.8080007508397 0.877080112211886
18.8240007515997 1.14196586320627
18.8400007523596 0.711234683788368
18.8560007531196 0.524309825381752
18.8720007538795 0.576526724501085
18.8880007546395 0.563108327262325
18.9040007553995 0.863512963097787
18.9200007561594 0.541180087383496
18.9360007569194 0.115094948106177
18.9520007576793 0.442716605251042
18.9680007584393 0.490522090156364
18.9840007591993 0.357914455885505
19.0000007599592 0.39560124429556
19.0160007607192 0.361438492473678
19.0320007614791 0.418189990790599
19.0480007622391 0.658750235017821
19.0640007629991 0.733057747090034
19.080000763759 0.520254414351721
19.096000764519 0.662788877186121
19.1120007652789 0.542945406882805
19.1280007660389 0.353901163301145
19.1440007667989 0.588052384710873
19.1600007675588 0.603484120580991
19.1760007683188 0.324747042725551
19.1920007690787 0.98325786414041
19.2080007698387 0.885152012946416
19.2240007705986 0.568217321762201
19.2400007713586 0.742949960392377
19.2560007721186 0.763426515845404
19.2720007728785 0.795380625677567
19.2880007736385 0.786664449196125
19.3040007743984 0.604461635865365
19.3200007751584 1.05407279714402
19.3360007759184 0.821856519195209
19.3520007766783 0.389966443213111
19.3680007774383 0.426284982120534
19.3840007781982 0.835658664654816
19.4000007789582 1.03716817101899
19.4160007797182 1.31959245084823
19.4320007804781 1.16776035956783
19.4480007812381 1.20616653479362
19.464000781998 1.18273143659753
19.480000782758 1.00778112907151
19.496000783518 1.00223153467766
19.5120007842779 1.22365537147186
19.5280007850379 1.27540249964557
19.5440007857978 1.53684809212387
19.5600007865578 1.71267549633887
19.5760007873177 1.85747194082288
19.5920007880777 1.81399213558859
19.6080007888377 2.04241697276316
19.6240007895976 2.52492504219947
19.6400007903576 2.79318093016677
19.6560007911175 2.99071556647914
19.6720007918775 3.20142080716656
19.6880007926375 3.57444510927704
19.7040007933974 3.91826696305492
19.7200007941574 4.54102554952648
19.7360007949173 4.38682675900519
19.7520007956773 4.9103223936551
19.7680007964373 5.2259459834992
19.7840007971972 5.41630474284743
19.8000007979572 5.62893486929907
19.8160007987171 5.8679885404036
19.8320007994771 6.00740002503944
19.8480008002371 5.92089317348606
19.864000800997 5.99767135020878
19.880000801757 5.80005568197125
19.8960008025169 5.76565555303576
19.9120008032769 5.44876555742172
19.9280008040369 4.62365412982524
19.9440008047968 5.20493055063661
19.9600008055568 5.09888045261011
19.9760008063167 4.63735373466073
19.9920008070767 4.58968767353828
20.0080008078366 4.5272995941929
20.0240008085966 4.24656426625589
20.0400008093566 3.81140397545866
20.0560008101165 4.09704800674559
20.0720008108765 4.01184954981843
20.0880008116364 3.78830601794321
20.1040008123964 3.78043351565079
20.1200008131564 3.86180375137975
20.1360008139163 3.80381037889673
20.1520008146763 3.76330373146836
20.1680008154362 3.68853041303974
20.1840008161962 3.24333263075286
20.2000008169562 3.24297200101504
20.2160008177161 3.63583049097292
20.2320008184761 3.57550485273635
20.248000819236 3.44221192409841
20.264000819996 3.65950090511086
20.280000820756 3.63222965175358
20.2960008215159 3.75538632023799
20.3120008222759 3.71092234583894
20.3280008230358 3.43373320712677
20.3440008237958 3.57306557128363
20.3600008245558 4.1836569303207
20.3760008253157 3.63330365910611
20.3920008260757 3.25509599939
20.4080008268356 3.17266008309919
20.4240008275956 2.99110270549585
20.4400008283555 2.89110259648634
20.4560008291155 3.33450888567696
20.4720008298755 3.18410269669712
20.4880008306354 3.05517699106832
20.5040008313954 3.1433273609953
20.5200008321553 3.41098902963612
20.5360008329153 3.27141261819097
20.5520008336753 2.5706618498705
20.5680008344352 2.98610945333062
20.5840008351952 3.6476216711596
20.6000008359551 3.70708429852212
20.6160008367151 3.07583977596896
20.6320008374751 3.49595448336026
20.648000838235 4.10816097604233
20.664000838995 4.05530655737829
20.6800008397549 4.28690379152672
20.6960008405149 4.54654876228477
20.7120008412749 5.02622297091627
20.7280008420348 6.07775179512601
20.7440008427948 7.31345976232286
20.7600008435547 9.34468616990345
20.7760008443147 11.7967802991217
20.7920008450747 17.1637501905953
20.8080008458346 22.8435544020512
20.8240008465946 25.9732677673708
20.8400008473545 22.4034441959028
20.8560008481145 17.4054063381504
20.8720008488744 15.7182965587797
20.8880008496344 12.7157157587359
20.9040008503944 8.67081741621997
20.9200008511543 5.94863494538605
20.9360008519143 4.68398705985115
20.9520008526742 4.46105335074312
20.9680008534342 4.27448354037393
20.9840008541942 4.01722898919702
21.0000008549541 3.7258152761235
21.0160008557141 3.25602595491922
21.032000856474 3.35249849818795
21.048000857234 3.58407127230237
21.064000857994 3.35412824637984
21.0800008587539 3.1052508512179
21.0960008595139 2.97363041140676
21.1120008602738 3.37000533474659
21.1280008610338 2.82210534031653
21.1440008617938 2.53899381951487
21.1600008625537 2.3874535513851
21.1760008633137 2.78250161400292
21.1920008640736 2.97272950624367
21.2080008648336 2.81322765428095
21.2240008655935 2.89190056982579
21.2400008663535 2.67067367046453
21.2560008671135 2.53385716133778
21.2720008678734 2.64592236425277
21.2880008686334 2.319033177945
21.3040008693933 2.34209242117224
21.3200008701533 2.31325507595888
21.3360008709133 2.36904623187866
21.3520008716732 2.37724861315561
21.3680008724332 2.73355103859344
21.3840008731931 2.48352312842748
21.4000008739531 2.72253167247018
21.4160008747131 2.72363937305037
21.432000875473 2.84509821827846
21.448000876233 2.68293246059033
21.4640008769929 2.75293054899854
21.4800008777529 2.56205851874257
21.4960008785129 2.30037427448798
21.5120008792728 2.46918978835084
21.5280008800328 2.54349161584677
21.5440008807927 2.49813376737029
21.5600008815527 2.34226219387458
21.5760008823127 2.3959521028574
21.5920008830726 2.2156551272609
21.6080008838326 2.33846882925185
21.6240008845925 2.56051309341669
21.6400008853525 2.57886906853919
21.6560008861124 2.21650744932131
21.6720008868724 1.85425221970109
21.6880008876324 2.10500009379839
21.7040008883923 2.15218108721275
21.7200008891523 1.97467363341325
21.7360008899122 1.61029503538601
21.7520008906722 1.86664021695266
21.7680008914322 2.14436785979475
21.7840008921921 1.89360462850441
21.8000008929521 1.81743022854822
21.816000893712 1.65748538485536
21.832000894472 1.82824813214306
21.848000895232 1.63332494576619
21.8640008959919 1.61478159396013
21.8800008967519 1.8849723532173
21.8960008975118 2.16445105800359
21.9120008982718 1.83130326855293
21.9280008990318 1.93735653053532
21.9440008997917 1.48519307018231
21.9600009005517 1.68182984982978
21.9760009013116 1.6700742143683
21.9920009020716 1.61033691948467
22.0080009028316 1.7276378485825
22.0240009035915 1.7481187493641
22.0400009043515 1.33251872566031
22.0560009051114 1.35875399209416
22.0720009058714 1.90750932991837
22.0880009066313 1.96324660647791
22.1040009073913 1.50864467742751
22.1200009081513 1.03765717423233
22.1360009089112 1.20369270668679
22.1520009096712 1.08145653482334
22.1680009104311 1.11232391694548
22.1840009111911 1.15878053725417
22.2000009119511 1.54288725235922
22.216000912711 1.37087914462862
22.232000913471 1.16158003719311
22.2480009142309 1.03689185262155
22.2640009149909 0.927380246762563
22.2800009157509 1.32760399554267
22.2960009165108 1.13077471843784
22.3120009172708 1.22538207136454
22.3280009180307 1.31626658318099
22.3440009187907 1.25394423168185
22.3600009195507 1.07010302040632
22.3760009203106 1.05023863121575
22.3920009210706 1.07684024215668
22.4080009218305 1.2184969701454
22.4240009225905 1.16160816676593
22.4400009233504 0.799559868630864
22.4560009241104 0.853082200141272
22.4720009248704 1.31657567287476
22.4880009256303 1.23281865087919
22.5040009263903 0.724247929856678
22.5200009271502 0.975707887123529
22.5360009279102 1.55228440442221
22.5520009286702 1.33222950374542
22.5680009294301 1.09423377953536
22.5840009301901 1.03922949790961
22.60000093095 1.03987212196236
22.61600093171 1.02123506932435
22.63200093247 1.02743400909107
22.6480009332299 1.07258986333074
22.6640009339899 1.06323554270407
22.6800009347498 1.22080883837425
22.6960009355098 1.41234988608483
22.7120009362698 1.05205154607567
22.7280009370297 0.940664730709412
22.7440009377897 0.917943460457811
22.7600009385496 1.16221043311419
22.7760009393096 1.36388949698807
22.7920009400696 1.08850733022183
22.8080009408295 1.32298535922976
22.8240009415895 1.31080594485204
22.8400009423494 1.46516519447183
22.8560009431094 1.53366812645367
22.8720009438693 1.23501941094869
22.8880009446293 1.2164893005277
22.9040009453893 1.18030785540428
22.9200009461492 0.969851925318204
22.9360009469092 0.83926811285544
22.9520009476691 1.00499726963904
22.9680009484291 1.03704655510634
22.9840009491891 0.825458808354848
23.000000949949 1.23834445394882
23.016000950709 1.25685675039871
23.0320009514689 0.958853696236308
23.0480009522289 0.930208844849276
23.0640009529889 0.855822728150948
23.0800009537488 0.950435536668569
23.0960009545088 1.08199931585196
23.1120009552687 1.159329248957
23.1280009560287 0.935306127049349
23.1440009567887 0.679273731832171
23.1600009575486 1.10162787345083
23.1760009583086 1.29509064475825
23.1920009590685 1.1329387277446
23.2080009598285 1.17892792484929
23.2240009605885 0.769273467434464
23.2400009613484 1.02238938004414
23.2560009621084 0.972111508516712
23.2720009628683 0.949525117134988
23.2880009636283 1.2068437615881
23.3040009643882 1.22132046111779
23.3200009651482 1.50402866378504
23.3360009659082 1.40990594858884
23.3520009666681 1.24364116862061
23.3680009674281 1.18198084333374
23.384000968188 1.06350223699477
23.400000968948 0.981522072313417
23.416000969708 0.940447755531159
23.4320009704679 0.971067556859912
23.4480009712279 0.92602487426259
23.4640009719878 1.05272784495598
23.4800009727478 1.17161120415288
23.4960009735078 1.2902009956988
23.5120009742677 1.27975267760646
23.5280009750277 1.11408884743641
23.5440009757876 1.28007527988114
23.5600009765476 1.20832933171542
23.5760009773076 0.90712220395018
23.5920009780675 0.930581334980615
23.6080009788275 1.13431366494314
23.6240009795874 1.13183856366838
23.6400009803474 1.14769775236363
23.6560009811074 0.990063788471681
23.6720009818673 1.16780149583211
23.6880009826273 0.731105840271298
23.7040009833872 0.826029788610339
23.7200009841472 1.40007523264923
23.7360009849071 0.950379559460475
23.7520009856671 0.8080989698218
23.7680009864271 1.10784620548646
23.784000987187 1.05357211658315
23.800000987947 0.956113373598268
23.8160009887069 1.13202220788075
23.8320009894669 0.780107297276213
23.8480009902269 0.972898324750942
23.8640009909868 0.937168237242935
23.8800009917468 0.961960184644597
23.8960009925067 0.99131544640023
23.9120009932667 0.952120796618321
23.9280009940267 1.15530991527339
23.9440009947866 1.06055728638892
23.9600009955466 1.1489293129526
23.9760009963065 0.911881452425356
23.9920009970665 1.42885140245365
24.0080009978265 1.06962940323003
24.0240009985864 0.81221956127597
24.0400009993464 1.10259845492633
24.0560010001063 0.688619580205002
24.0720010008663 0.447608888441018
24.0880010016262 0.985611719350007
24.1040010023862 0.895962187912581
24.1200010031462 0.937774899466157
24.1360010039061 1.14361218558334
24.1520010046661 1.08783798658823
24.168001005426 1.2245351502156
24.184001006186 0.930372701330865
24.200001006946 0.956355721677302
24.2160010077059 1.0344382198421
24.2320010084659 1.07829358256201
24.2480010092258 1.18447210676209
24.2640010099858 1.23578489177981
24.2800010107458 1.39215102247346
24.2960010115057 1.49589051151284
24.3120010122657 1.52441501600306
24.3280010130256 1.42718324722001
24.3440010137856 1.46477251919984
24.3600010145456 1.55120923039137
24.3760010153055 1.00542068651358
24.3920010160655 1.35131225781781
24.4080010168254 1.43550628383591
24.4240010175854 1.53649959358455
24.4400010183454 1.39082453829993
24.4560010191053 1.37496659447971
24.4720010198653 1.6782077252182
24.4880010206252 1.71204805643671
24.5040010213852 1.7423731577963
24.5200010221451 1.96061676906472
24.5360010229051 2.09897267012672
24.5520010236651 2.31176421629825
24.568001024425 2.0965623266759
24.584001025185 2.36535325939868
24.6000010259449 2.23132547625667
24.6160010267049 2.8871132711971
24.6320010274649 2.5872525099027
24.6480010282248 2.63447689703326
24.6640010289848 3.0903357367716
24.6800010297447 3.11057012607639
24.6960010305047 3.81123148041856
24.7120010312647 3.84922402904236
24.7280010320246 4.70909702672461
24.7440010327846 5.09781761528635
24.7600010335445 5.37114940656605
24.7760010343045 7.10272340207246
24.7920010350645 8.76630081588411
24.8080010358244 10.0986373147227
24.8240010365844 11.1063512763039
24.8400010373443 11.6461423027646
24.8560010381043 10.7902987165374
24.8720010388643 10.1677549065388
24.8880010396242 9.77106282201667
24.9040010403842 8.81352623658023
24.9200010411441 7.58655452381471
24.9360010419041 6.17902040059725
24.952001042664 5.45593883659412
24.968001043424 4.93325620558497
24.984001044184 4.43891976096083
25.0000010449439 4.52899100914679
25.0160010457039 3.89722309822562
25.0320010464638 3.56018942338711
25.0480010472238 3.34169496339174
25.0640010479838 3.42639938988761
25.0800010487437 3.55003980433846
25.0960010495037 3.14706011735306
25.1120010502636 2.96559126869736
25.1280010510236 3.11036677649756
25.1440010517836 3.31192660123687
25.1600010525435 2.7339443710422
25.1760010533035 2.78482212491859
25.1920010540634 2.72972126528734
25.2080010548234 3.25217884388309
25.2240010555834 3.59864130015781
25.2400010563433 3.54341148793464
25.2560010571033 3.55305662030792
25.2720010578632 3.15833838450289
25.2880010586232 2.92666570362007
25.3040010593832 2.77039116816219
25.3200010601431 3.00179083075187
25.3360010609031 2.90307399790622
25.352001061663 2.92922244546327
25.368001062423 2.65363919786547
25.3840010631829 2.18562162696499
25.4000010639429 2.1839447963204
25.4160010647029 2.36740708205106
25.4320010654628 2.01399832092432
25.4480010662228 1.97075688887222
25.4640010669827 2.00144274526343
25.4800010677427 1.86247583522729
25.4960010685027 2.18365305151355
25.5120010692626 1.71784394457447
25.5280010700226 1.60656415742467
25.5440010707825 1.5863549046773
25.5600010715425 1.95772862496566
25.5760010723025 1.74440316686599
25.5920010730624 1.65542607689886
25.6080010738224 1.60783151666909
25.6240010745823 1.34697663169779
25.6400010753423 1.29320463357552
25.6560010761023 0.958112143132129
25.6720010768622 1.29353974215081
25.6880010776222 1.30322937624046
25.7040010783821 1.564765496442
25.7200010791421 1.63302778685788
25.736001079902 1.97816573892339
25.752001080662 1.70601420145853
25.768001081422 1.77385590034027
25.7840010821819 1.40303649848959
25.8000010829419 1.4354027849841
25.8160010837018 1.72330025839159
25.8320010844618 1.83025369420221
25.8480010852218 1.47770251317465
25.8640010859817 1.35527996961299
25.8800010867417 1.40372217068399
25.8960010875016 1.31895802884999
25.9120010882616 1.52951334680872
25.9280010890216 1.35567123876041
25.9440010897815 1.32022103105361
25.9600010905415 1.57369417383393
25.9760010913014 1.47252558272425
25.9920010920614 1.32662649786538
26.0080010928214 1.48727042101937
26.0240010935813 1.75662780498679
26.0400010943413 1.44708526155831
26.0560010951012 2.07524206108146
26.0720010958612 2.0010438202408
26.0880010966212 1.86387913027061
26.1040010973811 1.74286939872164
26.1200010981411 1.61512745633449
26.136001098901 1.86357487475997
26.152001099661 2.15162210688752
26.1680011004209 1.86600514275623
26.1840011011809 2.08592213054053
26.2000011019409 1.88377406959348
26.2160011027008 2.35521245333813
26.2320011034608 2.31293035574163
26.2480011042207 2.34552300883711
26.2640011049807 2.48487782444594
26.2800011057407 2.84251758232372
26.2960011065006 3.03311024886131
26.3120011072606 3.136866271598
26.3280011080205 3.13003383199169
26.3440011087805 3.27949439589467
26.3600011095405 4.01139145054881
26.3760011103004 4.07482979762489
26.3920011110604 4.27143277560783
26.4080011118203 4.69890175817385
26.4240011125803 5.53493422679475
26.4400011133403 6.43348005138218
26.4560011141002 7.4527838203532
26.4720011148602 8.67364755267758
26.4880011156201 10.7889232358354
26.5040011163801 14.2343416260241
26.5200011171401 19.6977527721555
26.5360011179 28.1063995327083
26.55200111866 40.964301847883
26.5680011194199 61.2130309366853
26.5840011201799 83.6045395046573
26.6000011209398 95.9770378245952
26.6160011216998 85.8815961761546
26.6320011224598 64.8217292174022
26.6480011232197 57.0832121731792
26.6640011239797 55.5329794446859
26.6800011247396 46.6405949341563
26.6960011254996 30.9605791635355
26.7120011262596 20.034471528572
26.7280011270195 14.7835809584341
26.7440011277795 11.6886439586475
26.7600011285394 10.0928725586069
26.7760011292994 8.52028756704004
26.7920011300594 7.88440875989073
26.8080011308193 6.7873090567023
26.8240011315793 6.03271119899684
26.8400011323392 5.4129706093785
26.8560011330992 4.39926526205921
26.8720011338592 4.16036341614452
26.8880011346191 3.53133560026509
26.9040011353791 3.1954233759662
26.920001136139 3.08306769534645
26.936001136899 2.6834882981266
26.952001137659 2.24640058174904
26.9680011384189 2.05238293804222
26.9840011391789 2.35316891278556
27.0000011399388 2.25056229681534
27.0160011406988 1.96406374549447
27.0320011414587 2.01669141838672
27.0480011422187 1.6910061321142
27.0640011429787 1.561114480128
27.0800011437386 1.67368300488187
27.0960011444986 1.45912940574979
27.1120011452585 1.40214659634351
27.1280011460185 1.41326878277518
27.1440011467785 1.29282356096163
27.1600011475384 1.40509365240916
27.1760011482984 1.58465002589961
27.1920011490583 1.33226144863714
27.2080011498183 1.13630787445059
27.2240011505783 1.12409274770307
27.2400011513382 0.899765053677053
27.2560011520982 1.20031899551786
27.2720011528581 1.22182986871494
27.2880011536181 1.62147503331938
27.3040011543781 1.52665551307402
27.320001155138 1.36738070876794
27.336001155898 1.27012076816281
27.3520011566579 1.46646123310446
27.3680011574179 1.88825706460434
27.3840011581778 1.69485182955839
27.4000011589378 1.53794806136841
27.4160011596978 1.59870404739747
27.4320011604577 1.48958466891661
27.4480011612177 1.60134795944741
27.4640011619776 1.71337407995189
27.4800011627376 1.39572881439687
27.4960011634976 1.17292450462431
27.5120011642575 1.37101060914219
27.5280011650175 1.11544386853185
27.5440011657774 1.30130348962956
27.5600011665374 1.27172634798073
27.5760011672974 1.57883869310764
27.5920011680573 1.44492545187864
27.6080011688173 1.2537165990575
27.6240011695772 1.42066104554146
27.6400011703372 1.28377832865976
27.6560011710972 1.30534240913527
27.6720011718571 1.34560938477815
27.6880011726171 1.59993097242523
27.704001173377 1.68640599552397
27.720001174137 1.90738081391458
27.7360011748969 1.56423704179036
27.7520011756569 1.62056793228938
27.7680011764169 1.68216908746373
27.7840011771768 1.55468437914868
27.8000011779368 1.25620065701396
27.8160011786967 1.26487201415724
27.8320011794567 1.66956498651272
27.8480011802167 1.73820463821297
27.8640011809766 1.51411026569417
27.8800011817366 1.84376326015489
27.8960011824965 2.09580615952328
27.9120011832565 1.98302406602228
27.9280011840165 1.79939914444304
27.9440011847764 1.45668770263666
27.9600011855364 1.77120619596478
27.9760011862963 1.77892944276426
27.9920011870563 1.31829171796436
28.0080011878163 1.21675909646067
28.0240011885762 1.14341264753781
28.0400011893362 1.05868845493637
28.0560011900961 0.938487839493155
28.0720011908561 0.828806998377256
28.0880011916161 0.796410655159659
28.104001192376 1.07845281285756
28.120001193136 1.03220704676067
28.1360011938959 1.11731850660956
28.1520011946559 0.91389290068943
28.1680011954158 1.1565889659912
28.1840011961758 0.962631899886106
28.2000011969358 0.946250631161841
28.2160011976957 0.941014345065416
28.2320011984557 0.863253392231289
28.2480011992156 0.779316691132601
28.2640011999756 0.930185297683802
28.2800012007356 0.847139159992962
28.2960012014955 0.738258478429363
28.3120012022555 0.787712193161238
28.3280012030154 0.723214000416205
28.3440012037754 0.485922658267646
28.3600012045354 0.682288129378006
28.3760012052953 0.666679840712798
28.3920012060553 0.987075845288127
28.4080012068152 0.791722560501461
28.4240012075752 0.66716011332896
28.4400012083352 0.79494328186185
28.4560012090951 0.775801237455947
28.4720012098551 0.672314515862086
28.488001210615 0.660309696974008
28.504001211375 0.500972313571157
28.520001212135 0.814777771382114
28.5360012128949 0.870302413514298
28.5520012136549 0.966146513453299
28.5680012144148 0.871152147519822
28.5840012151748 0.362038480781414
28.6000012159347 0.523484399469644
28.6160012166947 0.683483805692183
28.6320012174547 0.717031313759827
28.6480012182146 0.81078594410419
28.6640012189746 1.00282286984177
28.6800012197345 0.708851332206021
28.6960012204945 0.294991057248144
28.7120012212545 0.548620079113326
28.7280012220144 0.530169081763
28.7440012227744 0.356816321058901
28.7600012235343 0.0978563144137619
28.7760012242943 0.548723820677815
28.7920012250543 0.738648841983321
28.8080012258142 0.719835124152485
28.8240012265742 0.48287853001647
28.8400012273341 0.858234500708012
28.8560012280941 0.604756593788593
28.8720012288541 0.745115904131961
28.888001229614 0.676903280340269
28.904001230374 0.467571157650505
28.9200012311339 0.90975543402696
28.9360012318939 0.632422191746424
28.9520012326538 0.287532999804367
28.9680012334138 0.889195340605755
28.9840012341738 0.954369724349514
29.0000012349337 0.852328062836192
29.0160012356937 1.14042999380959
29.0320012364536 1.02416199412367
29.0480012372136 0.714581820731538
29.0640012379736 0.946547770484615
29.0800012387335 1.40250863827795
29.0960012394935 1.3864282412995
29.1120012402534 1.03031403445844
29.1280012410134 0.907216012421078
29.1440012417734 0.727595218460382
29.1600012425333 0.977026589473197
29.1760012432933 0.778437017999406
29.1920012440532 0.517435758662448
29.2080012448132 0.518074846304862
29.2240012455732 0.681278584291765
29.2400012463331 0.607855197412625
29.2560012470931 0.629194266034534
29.272001247853 0.971602286010788
29.288001248613 0.68106378563328
29.304001249373 0.585761865705719
29.3200012501329 0.404614332496075
29.3360012508929 0.592761365157389
29.3520012516528 0.78994141303347
29.3680012524128 0.486981350107045
29.3840012531727 0.803892656422119
29.4000012539327 0.630134266497925
29.4160012546927 0.41322255343404
29.4320012554526 0.699370401929653
29.4480012562126 0.351804674764312
29.4640012569725 0.290856057934501
29.4800012577325 0.432126575549703
29.4960012584925 0.576850090875001
29.5120012592524 0.746452249059906
29.5280012600124 0.621813372775015
29.5440012607723 0.210553556093877
29.5600012615323 0.363461568619909
29.5760012622923 0.796919048965097
29.5920012630522 0.622077316203547
29.6080012638122 0.572075909307444
29.6240012645721 0.342472262037503
29.6400012653321 0.591026398224273
29.6560012660921 1.22280411198316
29.672001266852 0.991756560425235
29.688001267612 0.935097545302752
29.7040012683719 0.445989499190317
29.7200012691319 0.696229225372684
29.7360012698919 0.914702455887219
29.7520012706518 0.728817993905566
29.7680012714118 0.592956075389952
29.7840012721717 0.7086398794899
29.8000012729317 1.03236293892565
29.8160012736916 0.913748293078796
29.8320012744516 1.14774080076938
29.8480012752116 0.97095069647369
29.8640012759715 0.514748233047601
29.8800012767315 0.895758130344793
29.8960012774914 0.750589730690327
29.9120012782514 0.587127249735951
29.9280012790114 0.514920959772103
29.9440012797713 0.673009814249792
29.9600012805313 1.01620464602232
29.9760012812912 0.994654242561137
29.9920012820512 0.783054733506867
30.0080012828112 0.383950557130547
30.0240012835711 0.653245644485588
30.0400012843311 0.776593186899164
30.056001285091 0.786128293669747
30.072001285851 0.898070147557518
30.088001286611 0.923713896076985
30.1040012873709 0.812819013094031
30.1200012881309 0.673106608747628
30.1360012888908 0.342395821120652
30.1520012896508 0.634127294393259
30.1680012904107 0.884733877718475
30.1840012911707 0.585068394611251
30.2000012919307 0.443701063886912
30.2160012926906 0.530381873870819
30.2320012934506 0.727092403405005
30.2480012942105 0.73447920464132
30.2640012949705 0.711514359386137
30.2800012957305 0.382960989748594
30.2960012964904 0.449914839898645
30.3120012972504 0.561487699782174
30.3280012980103 0.590209804503691
30.3440012987703 0.825080311700998
30.3600012995303 0.857067170655674
30.3760013002902 0.58921179777248
30.3920013010502 0.499122957068189
30.4080013018101 0.854301239526034
30.4240013025701 0.401081522591477
30.4400013033301 0.732134788834371
30.45600130409 0.776265260965088
30.47200130485 0.509263705017202
30.4880013056099 0.842394171062455
30.5040013063699 0.714033282727319
30.5200013071299 0.660963160306848
30.5360013078898 0.519145557314848
30.5520013086498 0.554704954992289
30.5680013094097 0.757086457382584
30.5840013101697 0.486542276947686
30.6000013109296 0.610620827140337
30.6160013116896 0.4382925240966
30.6320013124496 0.56324727304223
30.6480013132095 0.808976932952169
30.6640013139695 0.52091761874175
30.6800013147294 0.505893520148928
30.6960013154894 0.658462723569484
30.7120013162494 0.500813461726582
30.7280013170093 0.571013290571615
30.7440013177693 0.456631464044571
30.7600013185292 0.654918865921501
30.7760013192892 0.487973385226024
30.7920013200492 0.469004105574244
30.8080013208091 0.49090976163439
30.8240013215691 0.353420565724631
30.840001322329 0.344048345396201
30.856001323089 0.495526666002624
30.872001323849 0.551949092452753
30.8880013246089 0.259115454042079
30.9040013253689 0.391968728677257
30.9200013261288 0.370648902373915
30.9360013268888 0.654989306776636
30.9520013276488 0.681679233870847
30.9680013284087 0.763541509945198
30.9840013291687 0.707236721919238
31.0000013299286 0.83740930830805
31.0160013306886 0.463083223880008
31.0320013314485 0.565898642915688
31.0480013322085 0.927595394660515
31.0640013329685 0.592081642805526
31.0800013337284 0.714905534801198
31.0960013344884 0.828041028139757
31.1120013352483 0.672678998026474
31.1280013360083 0.781760706731501
31.1440013367683 0.849478957673175
31.1600013375282 0.988384520635895
31.1760013382882 0.839372670187104
31.1920013390481 0.615549502401811
31.2080013398081 1.00715864561435
31.2240013405681 0.745257780604052
31.240001341328 0.361998457373224
31.256001342088 0.829388934191841
31.2720013428479 1.36749707272575
31.2880013436079 1.09560208212822
31.3040013443679 0.597935646664378
31.3200013451278 0.751907280774164
31.3360013458878 0.769969491623381
31.3520013466477 0.446433271521467
31.3680013474077 0.57206225382791
31.3840013481677 0.629754518383409
31.4000013489276 0.821128139025982
31.4160013496876 0.861085868436369
31.4320013504475 0.663732782561379
31.4480013512075 0.892961254966753
31.4640013519674 0.954185164589859
31.4800013527274 0.858912503800984
31.4960013534874 0.709032728451176
31.5120013542473 0.732164697073228
31.5280013550073 0.643200743614541
31.5440013557672 0.923907419929257
31.5600013565272 0.465872204491828
31.5760013572872 0.475181126813346
31.5920013580471 0.85242891910231
31.6080013588071 0.704108046937512
31.624001359567 0.586833804587518
31.640001360327 0.661601530711978
31.656001361087 0.604744451114612
31.6720013618469 0.798792014661677
31.6880013626069 0.47020471037793
31.7040013633668 0.690152727150363
31.7200013641268 0.774984504109958
31.7360013648868 0.465497168111262
31.7520013656467 0.463346260332069
31.7680013664067 0.427649261983083
31.7840013671666 0.62976635122673
31.8000013679266 0.492443105336611
31.8160013686865 0.698154120264853
31.8320013694465 0.462413457768609
31.8480013702065 0.546409082268891
31.8640013709664 0.851662463738839
31.8800013717264 0.608814149162007
31.8960013724863 0.733303523904781
31.9120013732463 0.546443748537195
31.9280013740063 0.572515882173027
31.9440013747662 0.564934668546952
31.9600013755262 0.665096881210451
31.9760013762861 0.722523873946385
31.9920013770461 0.76435683880144
32.0080013778061 0.761447290295377
32.024001378566 0.744338043303864
32.040001379326 0.843994773387202
32.0560013800859 0.857129922724527
32.0720013808459 0.578943259142903
32.0880013816059 0.372601777636534
32.1040013823658 0.303085311155266
32.1200013831258 0.185170667974389
32.1360013838857 0.658943408670584
32.1520013846457 0.811259057569218
32.1680013854057 0.432328586851704
32.1840013861656 0.307609012494003
32.2000013869256 0.5947087888002
32.2160013876855 0.525586934163726
32.2320013884455 0.366152400002059
32.2480013892054 0.249021652965375
32.2640013899654 0.604385799923569
32.2800013907254 0.346851259858932
32.2960013914853 0.359359702048391
32.3120013922453 0.465921935316977
32.3280013930052 0.295904504522617
32.3440013937652 0.408245032821903
32.3600013945252 0.46121561958716
32.3760013952851 0.606716914524712
32.3920013960451 0.298605469915787
32.408001396805 0.411704537409311
32.424001397565 0.439750886945063
32.440001398325 0.567783794048354
32.4560013990849 0.492510418943663
32.4720013998449 0.796821300480494
32.4880014006048 0.711753565697231
32.5040014013648 0.525983831551224
32.5200014021248 0.238621949245133
32.5360014028847 0.374029984370779
32.5520014036447 0.536310394104498
32.5680014044046 0.797950248736769
32.5840014051646 0.753393781200549
32.6000014059246 0.567412539992367
32.6160014066845 0.496383959498184
32.6320014074445 0.588824147690652
32.6480014082044 0.435319098455649
32.6640014089644 0.397509447495154
32.6800014097243 0.482003832079577
32.6960014104843 0.65369031052537
32.7120014112443 0.672503751723301
32.7280014120042 0.77519941165859
32.7440014127642 0.82904408572552
32.7600014135241 0.410586667725211
32.7760014142841 0.310578249083086
32.7920014150441 0.498394374069869
32.808001415804 0.583254890524983
32.824001416564 0.559344856737692
32.8400014173239 0.444701493212297
32.8560014180839 0.519398859052315
32.8720014188439 0.418663436373079
32.8880014196038 0.845241785660413
32.9040014203638 0.359586053068227
32.9200014211237 0.52807724038381
32.9360014218837 0.816007434442446
32.9520014226437 0.795236213585209
32.9680014234036 0.32287835930071
32.9840014241636 0.395835407015904
33.0000014249235 0.433598826273289
33.0160014256835 0.514234828996159
33.0320014264435 0.407770742521103
33.0480014272034 0.528586474810198
33.0640014279634 0.601921151858274
33.0800014287233 0.570966167120353
33.0960014294833 0.514002220885813
33.1120014302432 0.875052099558227
33.1280014310032 0.567925862816704
33.1440014317632 0.360860339038894
33.1600014325231 0.665130674126574
33.1760014332831 0.379870611611535
33.192001434043 0
33.208001434803 0.614231466168604
33.224001435563 0.763833417007049
33.2400014363229 0.40087080840669
33.2560014370829 0.743756803709465
33.2720014378428 1.12762202871958
33.2880014386028 0.836848029010947
33.3040014393628 0.636518203803973
33.3200014401227 0.891073899569887
33.3360014408827 0.802682151062519
33.3520014416426 0.603919638727164
33.3680014424026 0.481132022003122
33.3840014431626 0.702612437444805
33.4000014439225 0.778736128466627
33.4160014446825 0.574688837750459
33.4320014454424 0.594358222269341
33.4480014462024 0.752089182028386
33.4640014469623 0.58023204450692
33.4800014477223 0.281095400104995
33.4960014484823 0.697341045490615
33.5120014492422 0.471787433813723
33.5280014500022 0.277759137902891
33.5440014507621 0.278638578880503
33.5600014515221 0.289058533204925
33.5760014522821 0.774999645396306
33.592001453042 0.693368353331351
33.608001453802 0.416791551238585
33.6240014545619 0.407252951206388
33.6400014553219 0.410793515359944
33.6560014560819 0.402784062875202
33.6720014568418 0.614989284413783
33.6880014576018 0.363761511485194
33.7040014583617 0.560633533328039
33.7200014591217 0.353556646101966
33.7360014598817 0.847512364100892
33.7520014606416 0.406302975059273
33.7680014614016 0.397401101088343
33.7840014621615 0.766123897505324
33.8000014629215 0.666358802328681
33.8160014636815 0.366553668090468
33.8320014644414 0.466130720876389
33.8480014652014 0.411955307287779
33.8640014659613 0.439543727105528
33.8800014667213 0.526566561978667
33.8960014674812 0.721648897935278
33.9120014682412 0.741262321133633
33.9280014690012 0.719859394871422
33.9440014697611 0.310142796084269
33.9600014705211 0.532664733701804
33.976001471281 0.473429978650118
33.992001472041 0.471828429094426
34.008001472801 0.692865229627586
34.0240014735609 0.302377066455338
34.0400014743209 0.579502681892444
34.0560014750808 0.790885699053701
34.0720014758408 0.922047820256375
34.0880014766008 0.698842186412866
34.1040014773607 0.784571044095757
34.1200014781207 0.613915197918914
34.1360014788806 0.836580858698469
34.1520014796406 0.548494480063247
34.1680014804006 0.670540270646799
34.1840014811605 0.598007354069943
34.2000014819205 0.606848127839281
34.2160014826804 0.890537160630671
34.2320014834404 0.815631871064324
34.2480014842004 0.89795847518922
34.2640014849603 0.811099345067603
34.2800014857203 0.791004110679264
34.2960014864802 1.02797576045001
34.3120014872402 1.02014912016773
34.3280014880001 0.923325789655789
34.3440014887601 0.919112480269923
34.3600014895201 1.02504907512705
34.37600149028 0.928541534494825
34.39200149104 0.811763918049254
34.4080014917999 0.85590924862849
34.4240014925599 1.00839466501788
34.4400014933199 1.2840953237692
34.4560014940798 1.06146798211183
34.4720014948398 1.49486919371196
34.4880014955997 1.48725616562132
34.5040014963597 1.45658140061888
34.5200014971197 1.66499206711104
34.5360014978796 1.60412098002486
34.5520014986396 1.89054238054559
34.5680014993995 1.86292525948617
34.5840015001595 1.91371956766855
34.6000015009195 2.12045364453726
34.6160015016794 2.14477537430518
34.6320015024394 2.25436748825088
34.6480015031993 2.18158475894937
34.6640015039593 2.18200628998401
34.6800015047193 2.21032102754797
34.6960015054792 2.22015361674142
34.7120015062392 2.68546928996706
34.7280015069991 2.77179531646637
34.7440015077591 2.4537534188538
34.760001508519 2.24131527821604
34.776001509279 2.35287809144754
34.792001510039 2.79240011273914
34.8080015107989 3.05029117775491
34.8240015115589 2.66013140541449
34.8400015123188 2.98980970612667
34.8560015130788 3.18194060085146
34.8720015138388 3.27821957838422
34.8880015145987 3.05597867051204
34.9040015153587 2.99506004867002
34.9200015161186 3.58226688758989
34.9360015168786 3.81674578472556
34.9520015176386 3.73794847625847
34.9680015183985 3.95207479662777
34.9840015191585 4.18448739256741
35.0000015199184 3.94236557746831
35.0160015206784 3.47510190318305
35.0320015214384 3.39985654541822
35.0480015221983 3.33883222534578
35.0640015229583 3.48795326803772
35.0800015237182 3.48905671030132
35.0960015244782 3.3174819393592
35.1120015252381 2.77852338005565
35.1280015259981 2.84106212706524
35.1440015267581 2.41700473404485
35.160001527518 2.3997196822564
35.176001528278 2.30483153986073
35.1920015290379 2.1068512003151
35.2080015297979 2.22435022641538
35.2240015305579 2.19342585973144
35.2400015313178 2.35641572926264
35.2560015320778 2.13464525365485
35.2720015328377 2.32115112417088
35.2880015335977 1.96557843750366
35.3040015343577 1.89066387986465
35.3200015351176 2.10309724923385
35.3360015358776 2.08800576021231
35.3520015366375 1.83621838651594
35.3680015373975 2.00685389025599
35.3840015381575 2.10082146950185
35.4000015389174 2.07117380046233
35.4160015396774 2.01004915028876
35.4320015404373 1.66199558590045
35.4480015411973 1.94205407869577
35.4640015419573 1.93905606421684
35.4800015427172 1.57110634538621
35.4960015434772 1.72178056084147
35.5120015442371 2.01468767203156
35.5280015449971 1.91757845918047
35.544001545757 2.17845821986177
35.560001546517 1.62961901543191
35.576001547277 1.56009493535331
35.5920015480369 1.51522374012521
35.6080015487969 1.92877975242984
35.6240015495568 1.78561295071071
35.6400015503168 1.38149191057515
35.6560015510768 1.70274990479633
35.6720015518367 1.74130251545464
35.6880015525967 1.97490370381473
35.7040015533566 1.788392377823
35.7200015541166 1.87909753788539
35.7360015548766 2.06382384858995
35.7520015556365 2.19868755367921
35.7680015563965 1.85263233976826
35.7840015571564 1.92699840536601
35.8000015579164 2.03067837947939
35.8160015586764 2.01310053422174
35.8320015594363 2.08601662134058
35.8480015601963 2.16017647241005
35.8640015609562 2.16942031077458
35.8800015617162 2.07002919738952
35.8960015624762 2.54393941898411
35.9120015632361 2.33320108300856
35.9280015639961 1.94519494404646
35.944001564756 2.07556641049125
35.960001565516 2.18904934295544
35.9760015662759 2.24105949627389
35.9920015670359 2.49679149933486
36.0080015677959 2.13270210799199
36.0240015685558 2.06352234358433
36.0400015693158 1.83878742589435
36.0560015700757 1.69139191926654
36.0720015708357 1.75933866690026
36.0880015715957 1.79727175814332
36.1040015723556 1.80833695984089
36.1200015731156 1.31896208103536
36.1360015738755 1.22169679685019
36.1520015746355 1.5041421984406
36.1680015753955 1.53289673194217
36.1840015761554 1.48649354383236
36.2000015769154 1.5466661739308
36.2160015776753 1.30109073552799
36.2320015784353 1.5147067075512
36.2480015791953 1.69568863303931
36.2640015799552 1.62885179282971
36.2800015807152 1.60835729428759
36.2960015814751 1.62692737596678
36.3120015822351 1.84460595531589
36.328001582995 1.88082130140652
36.344001583755 1.55535423598125
36.360001584515 1.90542436422222
36.3760015852749 2.00634865982057
36.3920015860349 2.32966631465882
36.4080015867948 2.67543661251942
36.4240015875548 2.69808454686096
36.4400015883148 3.56400326335575
36.4560015890747 4.50014941212311
36.4720015898347 6.14479643808191
36.4880015905946 7.14858986966318
36.5040015913546 7.799597804321
36.5200015921146 6.57064758232225
36.5360015928745 5.15287165026044
36.5520015936345 4.69838451095885
36.5680015943944 4.63381406232129
36.5840015951544 5.13774634017413
36.6000015959144 4.82847145376192
36.6160015966743 4.14773287718042
36.6320015974343 3.41345403095503
36.6480015981942 2.47166277082321
36.6640015989542 1.96276138308599
36.6800015997142 1.85999077365712
36.6960016004741 1.8042049853454
36.7120016012341 1.84394669777846
36.728001601994 1.910677808117
36.744001602754 1.96755543649744
36.7600016035139 1.89237309314724
36.7760016042739 1.76401533115771
36.7920016050339 1.74489107417043
36.8080016057938 1.61042924677253
36.8240016065538 1.44039976838619
36.8400016073137 1.78368434070767
36.8560016080737 1.51489765053686
36.8720016088337 1.46375522945944
36.8880016095936 1.24389269031668
36.9040016103536 1.43544227609268
36.9200016111135 1.31729745560317
36.9360016118735 1.35092769055354
36.9520016126335 1.48987936157791
36.9680016133934 1.54481506120724
36.9840016141534 1.23456705289181
37.0000016149133 1.149163858038
37.0160016156733 1.38289071321242
37.0320016164333 1.09695747281068
37.0480016171932 1.12080664788861
37.0640016179532 0.97872082717743
37.0800016187131 1.20310937062062
37.0960016194731 1.25256262382174
37.1120016202331 1.27523645904053
37.128001620993 1.14977959489578
37.144001621753 1.00356976805961
37.1600016225129 0.979399880769122
37.1760016232729 0.957414761991373
37.1920016240328 1.27513869809613
37.2080016247928 1.34166370202633
37.2240016255528 1.64974708020199
37.2400016263127 1.2366337999695
37.2560016270727 1.18295610273592
37.2720016278326 1.01683230195971
37.2880016285926 1.36132239743508
37.3040016293526 1.16263048575848
37.3200016301125 1.27357587245887
37.3360016308725 1.3066397037407
37.3520016316324 1.30118422294263
37.3680016323924 1.14088105912583
37.3840016331524 1.22415962748787
37.4000016339123 1.33606022050074
37.4160016346723 1.52537351071938
37.4320016354322 1.65836620130608
37.4480016361922 1.47249139127574
37.4640016369522 1.76580344210172
37.4800016377121 1.58400089924711
37.4960016384721 1.19693730353972
37.512001639232 1.41385292726847
37.528001639992 1.43274822434982
37.544001640752 1.39575581283352
37.5600016415119 1.18284305859979
37.5760016422719 1.47626038435154
37.5920016430318 1.79818413513603
37.6080016437918 1.67499874395093
37.6240016445517 1.70968745715722
37.6400016453117 2.03431784222813
37.6560016460717 1.94169308203247
37.6720016468316 2.14816002675615
37.6880016475916 2.18546286954407
37.7040016483515 2.16058334503535
37.7200016491115 1.89507023348825
37.7360016498715 1.95910934893194
37.7520016506314 2.03346543226497
37.7680016513914 1.84994690870928
37.7840016521513 2.04456059854185
37.8000016529113 1.59238861689012
37.8160016536713 1.43128231909381
37.8320016544312 1.61548531912549
37.8480016551912 1.42321007944808
37.8640016559511 1.74675295039548
37.8800016567111 1.59971948275007
37.8960016574711 1.3993732254278
37.912001658231 1.45962709458332
37.928001658991 1.21200984806271
37.9440016597509 1.17843247407293
37.9600016605109 1.48652101660709
37.9760016612708 1.14777419476932
37.9920016620308 1.23269023166582
38.0080016627908 1.09148043006265
38.0240016635507 0.950120569558811
38.0400016643107 0.94899531165322
38.0560016650706 1.3006323561387
38.0720016658306 1.28230063618206
38.0880016665906 1.3493083092468
38.1040016673505 1.32832997527487
38.1200016681105 1.31715179980399
38.1360016688704 0.979133655110362
38.1520016696304 1.18225828322615
38.1680016703904 1.60498031008935
38.1840016711503 1.43604943576125
38.2000016719103 1.15941557487052
38.2160016726702 1.54642242429029
38.2320016734302 1.2386394205889
38.2480016741902 1.26607782957363
38.2640016749501 1.72931497768859
38.2800016757101 1.20416721676748
38.29600167647 1.42440446400866
38.31200167723 1.82273280351499
38.32800167799 1.81662319769787
38.3440016787499 1.89057980043544
38.3600016795099 1.99760159371135
38.3760016802698 1.93682490137674
38.3920016810298 1.91646717634746
38.4080016817897 1.95716668479465
38.4240016825497 1.69012778468592
38.4400016833097 1.83961898560564
38.4560016840696 2.30535507408265
38.4720016848296 1.87085596023039
38.4880016855895 1.46018094852807
38.5040016863495 1.58608581550761
38.5200016871095 1.93882551951819
38.5360016878694 1.55366910610701
38.5520016886294 1.62484857499632
38.5680016893893 1.4483579161678
38.5840016901493 1.71175786454722
38.6000016909093 1.56090674405003
38.6160016916692 1.7096877393529
38.6320016924292 1.71842341841235
38.6480016931891 1.38972988178735
38.6640016939491 1.2848846462219
38.6800016947091 1.56188228423807
38.696001695469 1.75652171623788
38.712001696229 1.46464652447052
38.7280016969889 1.39994709024401
38.7440016977489 1.03005779934384
38.7600016985089 1.16780795730741
38.7760016992688 1.42187038129381
38.7920017000288 1.29265274862341
38.8080017007887 1.13249343747784
38.8240017015487 1.05408807999765
38.8400017023086 0.961708597212143
38.8560017030686 1.08416098586801
38.8720017038286 0.899489565880985
38.8880017045885 0.891292847397619
38.9040017053485 1.03634950345849
38.9200017061084 0.919689889037789
38.9360017068684 0.707247125256076
38.9520017076284 0.500725652075132
38.9680017083883 0.998540285929554
38.9840017091483 0.976376554468508
39.0000017099082 0.685771031061539
39.0160017106682 0.852740152461864
39.0320017114282 0.908965716321164
39.0480017121881 0.979983898443812
39.0640017129481 1.11299602808092
39.080001713708 0.940268560253553
39.096001714468 0.948281662242533
39.112001715228 1.1945790096032
39.1280017159879 1.05065883108281
39.1440017167479 1.06732428408334
39.1600017175078 1.16344963435727
39.1760017182678 1.42443670274424
39.1920017190278 1.2490647110993
39.2080017197877 1.48691429528405
39.2240017205477 1.13901695969964
39.2400017213076 1.01288491710456
39.2560017220676 0.993485529858876
39.2720017228275 1.34700717292823
39.2880017235875 1.45962767705389
39.3040017243475 1.40351285067821
39.3200017251074 1.64528447167767
39.3360017258674 1.93090864213624
39.3520017266273 2.4187905263585
39.3680017273873 3.12915021122088
39.3840017281473 4.09664741734356
39.4000017289072 5.25906708908398
39.4160017296672 6.17878178690435
39.4320017304271 6.07296788135071
39.4480017311871 4.30268974986591
39.4640017319471 3.13021852479114
39.480001732707 2.93098011058171
39.496001733467 3.35615137935079
39.5120017342269 3.58582927388321
39.5280017349869 3.60756540545302
39.5440017357469 2.99917922383785
39.5600017365068 2.50505187709036
39.5760017372668 1.58311582637601
39.5920017380267 1.53451196676572
39.6080017387867 1.15911500914066
39.6240017395466 0.870190500801069
39.6400017403066 0.742098555101976
39.6560017410666 0.714761819581986
39.6720017418265 0.996697627647539
39.6880017425865 0.602333529879036
39.7040017433464 0.241928708572297
39.7200017441064 0.704470058093758
39.7360017448664 0.670540105338793
39.7520017456263 0.65884866794852
39.7680017463863 0.58282241772269
39.7840017471462 0.705016349120204
39.8000017479062 0.695180665412472
39.8160017486662 0.758141125916401
39.8320017494261 0.815993721973473
39.8480017501861 0.803203851461062
39.864001750946 1.05255549912295
39.880001751706 1.00832844546583
39.896001752466 0.812216972826017
39.9120017532259 0.777179619543506
39.9280017539859 0.379820452177298
39.9440017547458 0.509575008061432
39.9600017555058 0.828612520836577
39.9760017562658 0.920329529144484
39.9920017570257 0.881771604393614
